Apr. 28, 2026   10:50:44
Cyclic Voltammetry
File: c:\users\administrator\desktop\2026.4.28\0.1v\1mol hcl\run unsaved.txt
Data Source:  Experiment
Instrument Model:  CHI600E
Header: 
Note: 

Init E (V) = 0
High E (V) = 0.8
Low E (V) = -0.8
Init P/N = N
Scan Rate (V/s) = 0.1
Segment = 3
Sample Interval (V) = 0.001
Quiet Time (sec) = 2
Sensitivity (A/V) = 0.1

Segment 1:

Segment 2:

Segment 3:

Potential/V, Current/A

0.000, 8.376e-3
-0.001, 8.568e-3
-0.002, 8.743e-3
-0.003, 8.904e-3
-0.004, 9.056e-3
-0.005, 9.197e-3
-0.006, 9.343e-3
-0.007, 9.477e-3
-0.008, 9.612e-3
-0.009, 9.739e-3
-0.010, 9.866e-3
-0.011, 9.987e-3
-0.012, 1.011e-2
-0.013, 1.023e-2
-0.014, 1.034e-2
-0.015, 1.045e-2
-0.016, 1.057e-2
-0.017, 1.068e-2
-0.018, 1.079e-2
-0.019, 1.090e-2
-0.020, 1.101e-2
-0.021, 1.111e-2
-0.022, 1.122e-2
-0.023, 1.132e-2
-0.024, 1.142e-2
-0.025, 1.152e-2
-0.026, 1.163e-2
-0.027, 1.173e-2
-0.028, 1.183e-2
-0.029, 1.192e-2
-0.030, 1.202e-2
-0.031, 1.210e-2
-0.032, 1.219e-2
-0.033, 1.229e-2
-0.034, 1.238e-2
-0.035, 1.247e-2
-0.036, 1.257e-2
-0.037, 1.266e-2
-0.038, 1.275e-2
-0.039, 1.283e-2
-0.040, 1.293e-2
-0.041, 1.301e-2
-0.042, 1.310e-2
-0.043, 1.319e-2
-0.044, 1.328e-2
-0.045, 1.336e-2
-0.046, 1.345e-2
-0.047, 1.354e-2
-0.048, 1.362e-2
-0.049, 1.370e-2
-0.050, 1.379e-2
-0.051, 1.387e-2
-0.052, 1.396e-2
-0.053, 1.404e-2
-0.054, 1.412e-2
-0.055, 1.420e-2
-0.056, 1.428e-2
-0.057, 1.436e-2
-0.058, 1.444e-2
-0.059, 1.452e-2
-0.060, 1.460e-2
-0.061, 1.468e-2
-0.062, 1.476e-2
-0.063, 1.484e-2
-0.064, 1.492e-2
-0.065, 1.499e-2
-0.066, 1.507e-2
-0.067, 1.515e-2
-0.068, 1.522e-2
-0.069, 1.530e-2
-0.070, 1.538e-2
-0.071, 1.545e-2
-0.072, 1.553e-2
-0.073, 1.560e-2
-0.074, 1.568e-2
-0.075, 1.575e-2
-0.076, 1.583e-2
-0.077, 1.590e-2
-0.078, 1.597e-2
-0.079, 1.604e-2
-0.080, 1.612e-2
-0.081, 1.619e-2
-0.082, 1.626e-2
-0.083, 1.633e-2
-0.084, 1.641e-2
-0.085, 1.648e-2
-0.086, 1.655e-2
-0.087, 1.662e-2
-0.088, 1.669e-2
-0.089, 1.676e-2
-0.090, 1.683e-2
-0.091, 1.690e-2
-0.092, 1.697e-2
-0.093, 1.704e-2
-0.094, 1.711e-2
-0.095, 1.718e-2
-0.096, 1.725e-2
-0.097, 1.731e-2
-0.098, 1.738e-2
-0.099, 1.745e-2
-0.100, 1.752e-2
-0.101, 1.758e-2
-0.102, 1.765e-2
-0.103, 1.772e-2
-0.104, 1.779e-2
-0.105, 1.785e-2
-0.106, 1.792e-2
-0.107, 1.798e-2
-0.108, 1.805e-2
-0.109, 1.811e-2
-0.110, 1.818e-2
-0.111, 1.824e-2
-0.112, 1.831e-2
-0.113, 1.837e-2
-0.114, 1.844e-2
-0.115, 1.850e-2
-0.116, 1.856e-2
-0.117, 1.862e-2
-0.118, 1.869e-2
-0.119, 1.875e-2
-0.120, 1.882e-2
-0.121, 1.888e-2
-0.122, 1.894e-2
-0.123, 1.900e-2
-0.124, 1.907e-2
-0.125, 1.913e-2
-0.126, 1.920e-2
-0.127, 1.925e-2
-0.128, 1.932e-2
-0.129, 1.937e-2
-0.130, 1.944e-2
-0.131, 1.950e-2
-0.132, 1.956e-2
-0.133, 1.962e-2
-0.134, 1.969e-2
-0.135, 1.974e-2
-0.136, 1.981e-2
-0.137, 1.986e-2
-0.138, 1.993e-2
-0.139, 1.998e-2
-0.140, 2.005e-2
-0.141, 2.010e-2
-0.142, 2.017e-2
-0.143, 2.022e-2
-0.144, 2.028e-2
-0.145, 2.034e-2
-0.146, 2.040e-2
-0.147, 2.046e-2
-0.148, 2.052e-2
-0.149, 2.057e-2
-0.150, 2.063e-2
-0.151, 2.069e-2
-0.152, 2.075e-2
-0.153, 2.081e-2
-0.154, 2.087e-2
-0.155, 2.092e-2
-0.156, 2.098e-2
-0.157, 2.103e-2
-0.158, 2.110e-2
-0.159, 2.115e-2
-0.160, 2.121e-2
-0.161, 2.126e-2
-0.162, 2.132e-2
-0.163, 2.137e-2
-0.164, 2.143e-2
-0.165, 2.148e-2
-0.166, 2.154e-2
-0.167, 2.160e-2
-0.168, 2.165e-2
-0.169, 2.171e-2
-0.170, 2.177e-2
-0.171, 2.181e-2
-0.172, 2.188e-2
-0.173, 2.193e-2
-0.174, 2.199e-2
-0.175, 2.203e-2
-0.176, 2.209e-2
-0.177, 2.214e-2
-0.178, 2.220e-2
-0.179, 2.225e-2
-0.180, 2.231e-2
-0.181, 2.236e-2
-0.182, 2.242e-2
-0.183, 2.247e-2
-0.184, 2.252e-2
-0.185, 2.257e-2
-0.186, 2.263e-2
-0.187, 2.268e-2
-0.188, 2.273e-2
-0.189, 2.278e-2
-0.190, 2.284e-2
-0.191, 2.289e-2
-0.192, 2.294e-2
-0.193, 2.299e-2
-0.194, 2.305e-2
-0.195, 2.310e-2
-0.196, 2.315e-2
-0.197, 2.320e-2
-0.198, 2.326e-2
-0.199, 2.331e-2
-0.200, 2.336e-2
-0.201, 2.341e-2
-0.202, 2.346e-2
-0.203, 2.351e-2
-0.204, 2.357e-2
-0.205, 2.361e-2
-0.206, 2.367e-2
-0.207, 2.372e-2
-0.208, 2.377e-2
-0.209, 2.382e-2
-0.210, 2.387e-2
-0.211, 2.392e-2
-0.212, 2.398e-2
-0.213, 2.402e-2
-0.214, 2.408e-2
-0.215, 2.413e-2
-0.216, 2.418e-2
-0.217, 2.423e-2
-0.218, 2.428e-2
-0.219, 2.433e-2
-0.220, 2.438e-2
-0.221, 2.442e-2
-0.222, 2.448e-2
-0.223, 2.452e-2
-0.224, 2.458e-2
-0.225, 2.462e-2
-0.226, 2.468e-2
-0.227, 2.472e-2
-0.228, 2.478e-2
-0.229, 2.482e-2
-0.230, 2.487e-2
-0.231, 2.492e-2
-0.232, 2.497e-2
-0.233, 2.502e-2
-0.234, 2.507e-2
-0.235, 2.511e-2
-0.236, 2.516e-2
-0.237, 2.521e-2
-0.238, 2.526e-2
-0.239, 2.531e-2
-0.240, 2.536e-2
-0.241, 2.540e-2
-0.242, 2.546e-2
-0.243, 2.550e-2
-0.244, 2.555e-2
-0.245, 2.559e-2
-0.246, 2.565e-2
-0.247, 2.569e-2
-0.248, 2.574e-2
-0.249, 2.578e-2
-0.250, 2.583e-2
-0.251, 2.588e-2
-0.252, 2.593e-2
-0.253, 2.597e-2
-0.254, 2.602e-2
-0.255, 2.606e-2
-0.256, 2.611e-2
-0.257, 2.616e-2
-0.258, 2.621e-2
-0.259, 2.625e-2
-0.260, 2.630e-2
-0.261, 2.634e-2
-0.262, 2.639e-2
-0.263, 2.644e-2
-0.264, 2.649e-2
-0.265, 2.653e-2
-0.266, 2.658e-2
-0.267, 2.662e-2
-0.268, 2.667e-2
-0.269, 2.672e-2
-0.270, 2.677e-2
-0.271, 2.681e-2
-0.272, 2.686e-2
-0.273, 2.690e-2
-0.274, 2.695e-2
-0.275, 2.699e-2
-0.276, 2.704e-2
-0.277, 2.708e-2
-0.278, 2.713e-2
-0.279, 2.717e-2
-0.280, 2.722e-2
-0.281, 2.726e-2
-0.282, 2.731e-2
-0.283, 2.736e-2
-0.284, 2.741e-2
-0.285, 2.745e-2
-0.286, 2.750e-2
-0.287, 2.754e-2
-0.288, 2.759e-2
-0.289, 2.763e-2
-0.290, 2.768e-2
-0.291, 2.772e-2
-0.292, 2.777e-2
-0.293, 2.780e-2
-0.294, 2.785e-2
-0.295, 2.789e-2
-0.296, 2.794e-2
-0.297, 2.798e-2
-0.298, 2.803e-2
-0.299, 2.807e-2
-0.300, 2.812e-2
-0.301, 2.816e-2
-0.302, 2.821e-2
-0.303, 2.825e-2
-0.304, 2.830e-2
-0.305, 2.834e-2
-0.306, 2.838e-2
-0.307, 2.843e-2
-0.308, 2.848e-2
-0.309, 2.852e-2
-0.310, 2.857e-2
-0.311, 2.860e-2
-0.312, 2.865e-2
-0.313, 2.869e-2
-0.314, 2.874e-2
-0.315, 2.878e-2
-0.316, 2.883e-2
-0.317, 2.887e-2
-0.318, 2.892e-2
-0.319, 2.896e-2
-0.320, 2.900e-2
-0.321, 2.904e-2
-0.322, 2.909e-2
-0.323, 2.913e-2
-0.324, 2.918e-2
-0.325, 2.922e-2
-0.326, 2.927e-2
-0.327, 2.931e-2
-0.328, 2.935e-2
-0.329, 2.939e-2
-0.330, 2.944e-2
-0.331, 2.948e-2
-0.332, 2.953e-2
-0.333, 2.956e-2
-0.334, 2.961e-2
-0.335, 2.965e-2
-0.336, 2.970e-2
-0.337, 2.974e-2
-0.338, 2.979e-2
-0.339, 2.982e-2
-0.340, 2.987e-2
-0.341, 2.991e-2
-0.342, 2.995e-2
-0.343, 2.999e-2
-0.344, 3.004e-2
-0.345, 3.008e-2
-0.346, 3.013e-2
-0.347, 3.016e-2
-0.348, 3.021e-2
-0.349, 3.025e-2
-0.350, 3.030e-2
-0.351, 3.034e-2
-0.352, 3.038e-2
-0.353, 3.042e-2
-0.354, 3.047e-2
-0.355, 3.051e-2
-0.356, 3.056e-2
-0.357, 3.059e-2
-0.358, 3.064e-2
-0.359, 3.068e-2
-0.360, 3.073e-2
-0.361, 3.077e-2
-0.362, 3.081e-2
-0.363, 3.085e-2
-0.364, 3.090e-2
-0.365, 3.094e-2
-0.366, 3.098e-2
-0.367, 3.102e-2
-0.368, 3.107e-2
-0.369, 3.111e-2
-0.370, 3.115e-2
-0.371, 3.119e-2
-0.372, 3.124e-2
-0.373, 3.128e-2
-0.374, 3.132e-2
-0.375, 3.136e-2
-0.376, 3.141e-2
-0.377, 3.144e-2
-0.378, 3.149e-2
-0.379, 3.153e-2
-0.380, 3.158e-2
-0.381, 3.161e-2
-0.382, 3.166e-2
-0.383, 3.170e-2
-0.384, 3.174e-2
-0.385, 3.178e-2
-0.386, 3.183e-2
-0.387, 3.187e-2
-0.388, 3.192e-2
-0.389, 3.195e-2
-0.390, 3.200e-2
-0.391, 3.204e-2
-0.392, 3.208e-2
-0.393, 3.212e-2
-0.394, 3.217e-2
-0.395, 3.221e-2
-0.396, 3.225e-2
-0.397, 3.229e-2
-0.398, 3.234e-2
-0.399, 3.238e-2
-0.400, 3.242e-2
-0.401, 3.246e-2
-0.402, 3.251e-2
-0.403, 3.255e-2
-0.404, 3.259e-2
-0.405, 3.263e-2
-0.406, 3.268e-2
-0.407, 3.271e-2
-0.408, 3.276e-2
-0.409, 3.280e-2
-0.410, 3.285e-2
-0.411, 3.288e-2
-0.412, 3.293e-2
-0.413, 3.297e-2
-0.414, 3.301e-2
-0.415, 3.305e-2
-0.416, 3.310e-2
-0.417, 3.314e-2
-0.418, 3.318e-2
-0.419, 3.322e-2
-0.420, 3.327e-2
-0.421, 3.330e-2
-0.422, 3.335e-2
-0.423, 3.339e-2
-0.424, 3.343e-2
-0.425, 3.347e-2
-0.426, 3.352e-2
-0.427, 3.355e-2
-0.428, 3.360e-2
-0.429, 3.364e-2
-0.430, 3.368e-2
-0.431, 3.372e-2
-0.432, 3.377e-2
-0.433, 3.380e-2
-0.434, 3.385e-2
-0.435, 3.388e-2
-0.436, 3.393e-2
-0.437, 3.397e-2
-0.438, 3.401e-2
-0.439, 3.405e-2
-0.440, 3.410e-2
-0.441, 3.413e-2
-0.442, 3.418e-2
-0.443, 3.422e-2
-0.444, 3.426e-2
-0.445, 3.430e-2
-0.446, 3.435e-2
-0.447, 3.438e-2
-0.448, 3.443e-2
-0.449, 3.447e-2
-0.450, 3.451e-2
-0.451, 3.455e-2
-0.452, 3.460e-2
-0.453, 3.464e-2
-0.454, 3.468e-2
-0.455, 3.472e-2
-0.456, 3.477e-2
-0.457, 3.480e-2
-0.458, 3.485e-2
-0.459, 3.489e-2
-0.460, 3.493e-2
-0.461, 3.497e-2
-0.462, 3.502e-2
-0.463, 3.506e-2
-0.464, 3.510e-2
-0.465, 3.514e-2
-0.466, 3.519e-2
-0.467, 3.522e-2
-0.468, 3.527e-2
-0.469, 3.531e-2
-0.470, 3.535e-2
-0.471, 3.539e-2
-0.472, 3.544e-2
-0.473, 3.548e-2
-0.474, 3.552e-2
-0.475, 3.556e-2
-0.476, 3.561e-2
-0.477, 3.565e-2
-0.478, 3.569e-2
-0.479, 3.573e-2
-0.480, 3.578e-2
-0.481, 3.582e-2
-0.482, 3.586e-2
-0.483, 3.590e-2
-0.484, 3.594e-2
-0.485, 3.598e-2
-0.486, 3.603e-2
-0.487, 3.607e-2
-0.488, 3.611e-2
-0.489, 3.615e-2
-0.490, 3.620e-2
-0.491, 3.624e-2
-0.492, 3.628e-2
-0.493, 3.632e-2
-0.494, 3.637e-2
-0.495, 3.640e-2
-0.496, 3.645e-2
-0.497, 3.649e-2
-0.498, 3.653e-2
-0.499, 3.657e-2
-0.500, 3.662e-2
-0.501, 3.666e-2
-0.502, 3.670e-2
-0.503, 3.674e-2
-0.504, 3.679e-2
-0.505, 3.683e-2
-0.506, 3.688e-2
-0.507, 3.692e-2
-0.508, 3.696e-2
-0.509, 3.700e-2
-0.510, 3.704e-2
-0.511, 3.708e-2
-0.512, 3.713e-2
-0.513, 3.717e-2
-0.514, 3.721e-2
-0.515, 3.725e-2
-0.516, 3.730e-2
-0.517, 3.734e-2
-0.518, 3.739e-2
-0.519, 3.742e-2
-0.520, 3.747e-2
-0.521, 3.751e-2
-0.522, 3.756e-2
-0.523, 3.759e-2
-0.524, 3.764e-2
-0.525, 3.768e-2
-0.526, 3.772e-2
-0.527, 3.776e-2
-0.528, 3.781e-2
-0.529, 3.785e-2
-0.530, 3.789e-2
-0.531, 3.793e-2
-0.532, 3.798e-2
-0.533, 3.802e-2
-0.534, 3.807e-2
-0.535, 3.811e-2
-0.536, 3.815e-2
-0.537, 3.819e-2
-0.538, 3.824e-2
-0.539, 3.828e-2
-0.540, 3.833e-2
-0.541, 3.836e-2
-0.542, 3.841e-2
-0.543, 3.845e-2
-0.544, 3.850e-2
-0.545, 3.854e-2
-0.546, 3.858e-2
-0.547, 3.862e-2
-0.548, 3.867e-2
-0.549, 3.871e-2
-0.550, 3.876e-2
-0.551, 3.880e-2
-0.552, 3.885e-2
-0.553, 3.889e-2
-0.554, 3.893e-2
-0.555, 3.897e-2
-0.556, 3.902e-2
-0.557, 3.906e-2
-0.558, 3.911e-2
-0.559, 3.915e-2
-0.560, 3.919e-2
-0.561, 3.923e-2
-0.562, 3.928e-2
-0.563, 3.932e-2
-0.564, 3.937e-2
-0.565, 3.941e-2
-0.566, 3.946e-2
-0.567, 3.950e-2
-0.568, 3.955e-2
-0.569, 3.959e-2
-0.570, 3.963e-2
-0.571, 3.967e-2
-0.572, 3.972e-2
-0.573, 3.977e-2
-0.574, 3.981e-2
-0.575, 3.986e-2
-0.576, 3.990e-2
-0.577, 3.995e-2
-0.578, 3.999e-2
-0.579, 4.004e-2
-0.580, 4.008e-2
-0.581, 4.012e-2
-0.582, 4.017e-2
-0.583, 4.021e-2
-0.584, 4.026e-2
-0.585, 4.030e-2
-0.586, 4.035e-2
-0.587, 4.039e-2
-0.588, 4.044e-2
-0.589, 4.048e-2
-0.590, 4.053e-2
-0.591, 4.057e-2
-0.592, 4.062e-2
-0.593, 4.066e-2
-0.594, 4.071e-2
-0.595, 4.075e-2
-0.596, 4.080e-2
-0.597, 4.084e-2
-0.598, 4.089e-2
-0.599, 4.093e-2
-0.600, 4.098e-2
-0.601, 4.102e-2
-0.602, 4.107e-2
-0.603, 4.111e-2
-0.604, 4.116e-2
-0.605, 4.121e-2
-0.606, 4.126e-2
-0.607, 4.129e-2
-0.608, 4.134e-2
-0.609, 4.139e-2
-0.610, 4.144e-2
-0.611, 4.148e-2
-0.612, 4.153e-2
-0.613, 4.157e-2
-0.614, 4.162e-2
-0.615, 4.166e-2
-0.616, 4.171e-2
-0.617, 4.175e-2
-0.618, 4.180e-2
-0.619, 4.184e-2
-0.620, 4.189e-2
-0.621, 4.194e-2
-0.622, 4.199e-2
-0.623, 4.203e-2
-0.624, 4.208e-2
-0.625, 4.212e-2
-0.626, 4.217e-2
-0.627, 4.222e-2
-0.628, 4.227e-2
-0.629, 4.231e-2
-0.630, 4.236e-2
-0.631, 4.241e-2
-0.632, 4.246e-2
-0.633, 4.250e-2
-0.634, 4.255e-2
-0.635, 4.260e-2
-0.636, 4.265e-2
-0.637, 4.269e-2
-0.638, 4.274e-2
-0.639, 4.278e-2
-0.640, 4.283e-2
-0.641, 4.288e-2
-0.642, 4.293e-2
-0.643, 4.298e-2
-0.644, 4.303e-2
-0.645, 4.307e-2
-0.646, 4.313e-2
-0.647, 4.317e-2
-0.648, 4.322e-2
-0.649, 4.327e-2
-0.650, 4.332e-2
-0.651, 4.337e-2
-0.652, 4.342e-2
-0.653, 4.347e-2
-0.654, 4.351e-2
-0.655, 4.355e-2
-0.656, 4.360e-2
-0.657, 4.364e-2
-0.658, 4.369e-2
-0.659, 4.374e-2
-0.660, 4.380e-2
-0.661, 4.385e-2
-0.662, 4.390e-2
-0.663, 4.395e-2
-0.664, 4.400e-2
-0.665, 4.405e-2
-0.666, 4.410e-2
-0.667, 4.415e-2
-0.668, 4.421e-2
-0.669, 4.425e-2
-0.670, 4.431e-2
-0.671, 4.436e-2
-0.672, 4.442e-2
-0.673, 4.447e-2
-0.674, 4.452e-2
-0.675, 4.456e-2
-0.676, 4.462e-2
-0.677, 4.467e-2
-0.678, 4.473e-2
-0.679, 4.477e-2
-0.680, 4.483e-2
-0.681, 4.488e-2
-0.682, 4.493e-2
-0.683, 4.498e-2
-0.684, 4.504e-2
-0.685, 4.509e-2
-0.686, 4.515e-2
-0.687, 4.520e-2
-0.688, 4.526e-2
-0.689, 4.531e-2
-0.690, 4.537e-2
-0.691, 4.543e-2
-0.692, 4.548e-2
-0.693, 4.553e-2
-0.694, 4.559e-2
-0.695, 4.563e-2
-0.696, 4.569e-2
-0.697, 4.575e-2
-0.698, 4.580e-2
-0.699, 4.584e-2
-0.700, 4.590e-2
-0.701, 4.594e-2
-0.702, 4.600e-2
-0.703, 4.606e-2
-0.704, 4.611e-2
-0.705, 4.617e-2
-0.706, 4.622e-2
-0.707, 4.628e-2
-0.708, 4.634e-2
-0.709, 4.639e-2
-0.710, 4.646e-2
-0.711, 4.651e-2
-0.712, 4.657e-2
-0.713, 4.663e-2
-0.714, 4.669e-2
-0.715, 4.675e-2
-0.716, 4.681e-2
-0.717, 4.687e-2
-0.718, 4.693e-2
-0.719, 4.699e-2
-0.720, 4.705e-2
-0.721, 4.711e-2
-0.722, 4.717e-2
-0.723, 4.723e-2
-0.724, 4.730e-2
-0.725, 4.735e-2
-0.726, 4.742e-2
-0.727, 4.748e-2
-0.728, 4.754e-2
-0.729, 4.761e-2
-0.730, 4.767e-2
-0.731, 4.773e-2
-0.732, 4.780e-2
-0.733, 4.786e-2
-0.734, 4.792e-2
-0.735, 4.798e-2
-0.736, 4.806e-2
-0.737, 4.812e-2
-0.738, 4.818e-2
-0.739, 4.824e-2
-0.740, 4.831e-2
-0.741, 4.837e-2
-0.742, 4.843e-2
-0.743, 4.849e-2
-0.744, 4.856e-2
-0.745, 4.862e-2
-0.746, 4.868e-2
-0.747, 4.875e-2
-0.748, 4.882e-2
-0.749, 4.888e-2
-0.750, 4.895e-2
-0.751, 4.901e-2
-0.752, 4.908e-2
-0.753, 4.915e-2
-0.754, 4.922e-2
-0.755, 4.928e-2
-0.756, 4.935e-2
-0.757, 4.942e-2
-0.758, 4.949e-2
-0.759, 4.955e-2
-0.760, 4.961e-2
-0.761, 4.968e-2
-0.762, 4.974e-2
-0.763, 4.981e-2
-0.764, 4.987e-2
-0.765, 4.994e-2
-0.766, 5.001e-2
-0.767, 5.008e-2
-0.768, 5.015e-2
-0.769, 5.021e-2
-0.770, 5.029e-2
-0.771, 5.035e-2
-0.772, 5.042e-2
-0.773, 5.049e-2
-0.774, 5.057e-2
-0.775, 5.063e-2
-0.776, 5.071e-2
-0.777, 5.078e-2
-0.778, 5.085e-2
-0.779, 5.091e-2
-0.780, 5.099e-2
-0.781, 5.105e-2
-0.782, 5.113e-2
-0.783, 5.119e-2
-0.784, 5.127e-2
-0.785, 5.134e-2
-0.786, 5.141e-2
-0.787, 5.147e-2
-0.788, 5.155e-2
-0.789, 5.162e-2
-0.790, 5.169e-2
-0.791, 5.177e-2
-0.792, 5.184e-2
-0.793, 5.191e-2
-0.794, 5.199e-2
-0.795, 5.206e-2
-0.796, 5.213e-2
-0.797, 5.220e-2
-0.798, 5.227e-2
-0.799, 5.234e-2
-0.800, 5.226e-2
-0.799, 5.188e-2
-0.798, 5.154e-2
-0.797, 5.121e-2
-0.796, 5.091e-2
-0.795, 5.062e-2
-0.794, 5.032e-2
-0.793, 5.003e-2
-0.792, 4.976e-2
-0.791, 4.950e-2
-0.790, 4.926e-2
-0.789, 4.900e-2
-0.788, 4.874e-2
-0.787, 4.849e-2
-0.786, 4.824e-2
-0.785, 4.800e-2
-0.784, 4.776e-2
-0.783, 4.753e-2
-0.782, 4.729e-2
-0.781, 4.707e-2
-0.780, 4.684e-2
-0.779, 4.661e-2
-0.778, 4.639e-2
-0.777, 4.617e-2
-0.776, 4.596e-2
-0.775, 4.575e-2
-0.774, 4.555e-2
-0.773, 4.534e-2
-0.772, 4.513e-2
-0.771, 4.492e-2
-0.770, 4.471e-2
-0.769, 4.451e-2
-0.768, 4.431e-2
-0.767, 4.412e-2
-0.766, 4.392e-2
-0.765, 4.372e-2
-0.764, 4.354e-2
-0.763, 4.335e-2
-0.762, 4.316e-2
-0.761, 4.298e-2
-0.760, 4.278e-2
-0.759, 4.259e-2
-0.758, 4.240e-2
-0.757, 4.222e-2
-0.756, 4.204e-2
-0.755, 4.186e-2
-0.754, 4.168e-2
-0.753, 4.150e-2
-0.752, 4.132e-2
-0.751, 4.115e-2
-0.750, 4.097e-2
-0.749, 4.079e-2
-0.748, 4.061e-2
-0.747, 4.044e-2
-0.746, 4.026e-2
-0.745, 4.009e-2
-0.744, 3.991e-2
-0.743, 3.975e-2
-0.742, 3.958e-2
-0.741, 3.941e-2
-0.740, 3.924e-2
-0.739, 3.907e-2
-0.738, 3.891e-2
-0.737, 3.875e-2
-0.736, 3.860e-2
-0.735, 3.844e-2
-0.734, 3.827e-2
-0.733, 3.811e-2
-0.732, 3.795e-2
-0.731, 3.779e-2
-0.730, 3.763e-2
-0.729, 3.747e-2
-0.728, 3.733e-2
-0.727, 3.717e-2
-0.726, 3.701e-2
-0.725, 3.685e-2
-0.724, 3.670e-2
-0.723, 3.655e-2
-0.722, 3.639e-2
-0.721, 3.624e-2
-0.720, 3.610e-2
-0.719, 3.595e-2
-0.718, 3.581e-2
-0.717, 3.565e-2
-0.716, 3.550e-2
-0.715, 3.536e-2
-0.714, 3.522e-2
-0.713, 3.507e-2
-0.712, 3.493e-2
-0.711, 3.478e-2
-0.710, 3.465e-2
-0.709, 3.451e-2
-0.708, 3.437e-2
-0.707, 3.424e-2
-0.706, 3.410e-2
-0.705, 3.396e-2
-0.704, 3.382e-2
-0.703, 3.368e-2
-0.702, 3.354e-2
-0.701, 3.340e-2
-0.700, 3.327e-2
-0.699, 3.313e-2
-0.698, 3.299e-2
-0.697, 3.286e-2
-0.696, 3.273e-2
-0.695, 3.259e-2
-0.694, 3.246e-2
-0.693, 3.233e-2
-0.692, 3.221e-2
-0.691, 3.207e-2
-0.690, 3.194e-2
-0.689, 3.181e-2
-0.688, 3.167e-2
-0.687, 3.154e-2
-0.686, 3.142e-2
-0.685, 3.129e-2
-0.684, 3.117e-2
-0.683, 3.104e-2
-0.682, 3.091e-2
-0.681, 3.078e-2
-0.680, 3.066e-2
-0.679, 3.053e-2
-0.678, 3.041e-2
-0.677, 3.029e-2
-0.676, 3.017e-2
-0.675, 3.005e-2
-0.674, 2.993e-2
-0.673, 2.981e-2
-0.672, 2.970e-2
-0.671, 2.958e-2
-0.670, 2.947e-2
-0.669, 2.935e-2
-0.668, 2.924e-2
-0.667, 2.912e-2
-0.666, 2.900e-2
-0.665, 2.887e-2
-0.664, 2.876e-2
-0.663, 2.864e-2
-0.662, 2.852e-2
-0.661, 2.841e-2
-0.660, 2.829e-2
-0.659, 2.817e-2
-0.658, 2.806e-2
-0.657, 2.794e-2
-0.656, 2.783e-2
-0.655, 2.772e-2
-0.654, 2.761e-2
-0.653, 2.749e-2
-0.652, 2.737e-2
-0.651, 2.726e-2
-0.650, 2.714e-2
-0.649, 2.703e-2
-0.648, 2.692e-2
-0.647, 2.681e-2
-0.646, 2.669e-2
-0.645, 2.658e-2
-0.644, 2.647e-2
-0.643, 2.636e-2
-0.642, 2.624e-2
-0.641, 2.613e-2
-0.640, 2.603e-2
-0.639, 2.592e-2
-0.638, 2.582e-2
-0.637, 2.571e-2
-0.636, 2.560e-2
-0.635, 2.550e-2
-0.634, 2.539e-2
-0.633, 2.528e-2
-0.632, 2.518e-2
-0.631, 2.507e-2
-0.630, 2.497e-2
-0.629, 2.486e-2
-0.628, 2.476e-2
-0.627, 2.466e-2
-0.626, 2.455e-2
-0.625, 2.444e-2
-0.624, 2.434e-2
-0.623, 2.424e-2
-0.622, 2.414e-2
-0.621, 2.403e-2
-0.620, 2.392e-2
-0.619, 2.382e-2
-0.618, 2.371e-2
-0.617, 2.361e-2
-0.616, 2.351e-2
-0.615, 2.341e-2
-0.614, 2.332e-2
-0.613, 2.322e-2
-0.612, 2.312e-2
-0.611, 2.303e-2
-0.610, 2.293e-2
-0.609, 2.283e-2
-0.608, 2.274e-2
-0.607, 2.264e-2
-0.606, 2.255e-2
-0.605, 2.245e-2
-0.604, 2.235e-2
-0.603, 2.226e-2
-0.602, 2.216e-2
-0.601, 2.206e-2
-0.600, 2.198e-2
-0.599, 2.188e-2
-0.598, 2.179e-2
-0.597, 2.169e-2
-0.596, 2.161e-2
-0.595, 2.153e-2
-0.594, 2.145e-2
-0.593, 2.136e-2
-0.592, 2.127e-2
-0.591, 2.118e-2
-0.590, 2.108e-2
-0.589, 2.099e-2
-0.588, 2.089e-2
-0.587, 2.080e-2
-0.586, 2.071e-2
-0.585, 2.062e-2
-0.584, 2.053e-2
-0.583, 2.044e-2
-0.582, 2.035e-2
-0.581, 2.026e-2
-0.580, 2.017e-2
-0.579, 2.008e-2
-0.578, 1.999e-2
-0.577, 1.990e-2
-0.576, 1.980e-2
-0.575, 1.972e-2
-0.574, 1.963e-2
-0.573, 1.954e-2
-0.572, 1.945e-2
-0.571, 1.936e-2
-0.570, 1.927e-2
-0.569, 1.918e-2
-0.568, 1.910e-2
-0.567, 1.901e-2
-0.566, 1.892e-2
-0.565, 1.883e-2
-0.564, 1.874e-2
-0.563, 1.865e-2
-0.562, 1.857e-2
-0.561, 1.848e-2
-0.560, 1.840e-2
-0.559, 1.831e-2
-0.558, 1.822e-2
-0.557, 1.814e-2
-0.556, 1.805e-2
-0.555, 1.797e-2
-0.554, 1.788e-2
-0.553, 1.780e-2
-0.552, 1.772e-2
-0.551, 1.763e-2
-0.550, 1.754e-2
-0.549, 1.746e-2
-0.548, 1.738e-2
-0.547, 1.730e-2
-0.546, 1.722e-2
-0.545, 1.713e-2
-0.544, 1.705e-2
-0.543, 1.696e-2
-0.542, 1.688e-2
-0.541, 1.680e-2
-0.540, 1.672e-2
-0.539, 1.664e-2
-0.538, 1.656e-2
-0.537, 1.648e-2
-0.536, 1.640e-2
-0.535, 1.631e-2
-0.534, 1.623e-2
-0.533, 1.615e-2
-0.532, 1.607e-2
-0.531, 1.599e-2
-0.530, 1.590e-2
-0.529, 1.583e-2
-0.528, 1.575e-2
-0.527, 1.567e-2
-0.526, 1.559e-2
-0.525, 1.551e-2
-0.524, 1.543e-2
-0.523, 1.535e-2
-0.522, 1.527e-2
-0.521, 1.519e-2
-0.520, 1.511e-2
-0.519, 1.503e-2
-0.518, 1.496e-2
-0.517, 1.488e-2
-0.516, 1.480e-2
-0.515, 1.472e-2
-0.514, 1.464e-2
-0.513, 1.457e-2
-0.512, 1.448e-2
-0.511, 1.441e-2
-0.510, 1.433e-2
-0.509, 1.426e-2
-0.508, 1.418e-2
-0.507, 1.411e-2
-0.506, 1.403e-2
-0.505, 1.395e-2
-0.504, 1.388e-2
-0.503, 1.380e-2
-0.502, 1.373e-2
-0.501, 1.365e-2
-0.500, 1.358e-2
-0.499, 1.350e-2
-0.498, 1.343e-2
-0.497, 1.335e-2
-0.496, 1.328e-2
-0.495, 1.320e-2
-0.494, 1.313e-2
-0.493, 1.305e-2
-0.492, 1.298e-2
-0.491, 1.290e-2
-0.490, 1.283e-2
-0.489, 1.276e-2
-0.488, 1.269e-2
-0.487, 1.261e-2
-0.486, 1.254e-2
-0.485, 1.246e-2
-0.484, 1.239e-2
-0.483, 1.232e-2
-0.482, 1.225e-2
-0.481, 1.217e-2
-0.480, 1.211e-2
-0.479, 1.205e-2
-0.478, 1.198e-2
-0.477, 1.191e-2
-0.476, 1.183e-2
-0.475, 1.176e-2
-0.474, 1.169e-2
-0.473, 1.162e-2
-0.472, 1.154e-2
-0.471, 1.147e-2
-0.470, 1.140e-2
-0.469, 1.133e-2
-0.468, 1.126e-2
-0.467, 1.119e-2
-0.466, 1.112e-2
-0.465, 1.105e-2
-0.464, 1.098e-2
-0.463, 1.091e-2
-0.462, 1.083e-2
-0.461, 1.076e-2
-0.460, 1.069e-2
-0.459, 1.062e-2
-0.458, 1.055e-2
-0.457, 1.048e-2
-0.456, 1.041e-2
-0.455, 1.034e-2
-0.454, 1.027e-2
-0.453, 1.021e-2
-0.452, 1.014e-2
-0.451, 1.007e-2
-0.450, 1.000e-2
-0.449, 9.936e-3
-0.448, 9.866e-3
-0.447, 9.799e-3
-0.446, 9.730e-3
-0.445, 9.662e-3
-0.444, 9.594e-3
-0.443, 9.526e-3
-0.442, 9.457e-3
-0.441, 9.388e-3
-0.440, 9.321e-3
-0.439, 9.253e-3
-0.438, 9.181e-3
-0.437, 9.117e-3
-0.436, 9.050e-3
-0.435, 8.984e-3
-0.434, 8.915e-3
-0.433, 8.850e-3
-0.432, 8.782e-3
-0.431, 8.714e-3
-0.430, 8.647e-3
-0.429, 8.581e-3
-0.428, 8.510e-3
-0.427, 8.445e-3
-0.426, 8.377e-3
-0.425, 8.312e-3
-0.424, 8.242e-3
-0.423, 8.177e-3
-0.422, 8.109e-3
-0.421, 8.046e-3
-0.420, 7.978e-3
-0.419, 7.914e-3
-0.418, 7.849e-3
-0.417, 7.785e-3
-0.416, 7.718e-3
-0.415, 7.653e-3
-0.414, 7.587e-3
-0.413, 7.522e-3
-0.412, 7.456e-3
-0.411, 7.394e-3
-0.410, 7.323e-3
-0.409, 7.253e-3
-0.408, 7.189e-3
-0.407, 7.126e-3
-0.406, 7.062e-3
-0.405, 6.998e-3
-0.404, 6.935e-3
-0.403, 6.873e-3
-0.402, 6.805e-3
-0.401, 6.742e-3
-0.400, 6.679e-3
-0.399, 6.616e-3
-0.398, 6.550e-3
-0.397, 6.487e-3
-0.396, 6.420e-3
-0.395, 6.360e-3
-0.394, 6.297e-3
-0.393, 6.237e-3
-0.392, 6.173e-3
-0.391, 6.110e-3
-0.390, 6.045e-3
-0.389, 5.981e-3
-0.388, 5.921e-3
-0.387, 5.858e-3
-0.386, 5.792e-3
-0.385, 5.731e-3
-0.384, 5.670e-3
-0.383, 5.609e-3
-0.382, 5.545e-3
-0.381, 5.484e-3
-0.380, 5.420e-3
-0.379, 5.359e-3
-0.378, 5.295e-3
-0.377, 5.234e-3
-0.376, 5.173e-3
-0.375, 5.113e-3
-0.374, 5.049e-3
-0.373, 4.992e-3
-0.372, 4.928e-3
-0.371, 4.868e-3
-0.370, 4.805e-3
-0.369, 4.747e-3
-0.368, 4.685e-3
-0.367, 4.624e-3
-0.366, 4.560e-3
-0.365, 4.501e-3
-0.364, 4.434e-3
-0.363, 4.377e-3
-0.362, 4.316e-3
-0.361, 4.256e-3
-0.360, 4.192e-3
-0.359, 4.131e-3
-0.358, 4.067e-3
-0.357, 4.009e-3
-0.356, 3.948e-3
-0.355, 3.890e-3
-0.354, 3.825e-3
-0.353, 3.767e-3
-0.352, 3.705e-3
-0.351, 3.644e-3
-0.350, 3.585e-3
-0.349, 3.528e-3
-0.348, 3.466e-3
-0.347, 3.408e-3
-0.346, 3.344e-3
-0.345, 3.286e-3
-0.344, 3.225e-3
-0.343, 3.166e-3
-0.342, 3.106e-3
-0.341, 3.049e-3
-0.340, 2.987e-3
-0.339, 2.931e-3
-0.338, 2.868e-3
-0.337, 2.812e-3
-0.336, 2.753e-3
-0.335, 2.696e-3
-0.334, 2.634e-3
-0.333, 2.578e-3
-0.332, 2.516e-3
-0.331, 2.461e-3
-0.330, 2.400e-3
-0.329, 2.346e-3
-0.328, 2.288e-3
-0.327, 2.232e-3
-0.326, 2.171e-3
-0.325, 2.115e-3
-0.324, 2.055e-3
-0.323, 2.000e-3
-0.322, 1.937e-3
-0.321, 1.879e-3
-0.320, 1.819e-3
-0.319, 1.764e-3
-0.318, 1.705e-3
-0.317, 1.647e-3
-0.316, 1.587e-3
-0.315, 1.532e-3
-0.314, 1.469e-3
-0.313, 1.413e-3
-0.312, 1.355e-3
-0.311, 1.301e-3
-0.310, 1.240e-3
-0.309, 1.185e-3
-0.308, 1.124e-3
-0.307, 1.065e-3
-0.306, 1.007e-3
-0.305, 9.513e-4
-0.304, 8.938e-4
-0.303, 8.373e-4
-0.302, 7.765e-4
-0.301, 7.217e-4
-0.300, 6.606e-4
-0.299, 6.051e-4
-0.298, 5.464e-4
-0.297, 4.909e-4
-0.296, 4.331e-4
-0.295, 3.747e-4
-0.294, 3.153e-4
-0.293, 2.616e-4
-0.292, 2.016e-4
-0.291, 1.490e-4
-0.290, 9.141e-5
-0.289, 3.770e-5
-0.288, -2.307e-5
-0.287, -7.864e-5
-0.286, -1.364e-4
-0.285, -1.906e-4
-0.284, -2.484e-4
-0.283, -3.025e-4
-0.282, -3.605e-4
-0.281, -4.146e-4
-0.280, -4.741e-4
-0.279, -5.295e-4
-0.278, -5.859e-4
-0.277, -6.404e-4
-0.276, -6.998e-4
-0.275, -7.528e-4
-0.274, -8.107e-4
-0.273, -8.656e-4
-0.272, -9.218e-4
-0.271, -9.755e-4
-0.270, -1.033e-3
-0.269, -1.086e-3
-0.268, -1.145e-3
-0.267, -1.198e-3
-0.266, -1.255e-3
-0.265, -1.309e-3
-0.264, -1.367e-3
-0.263, -1.421e-3
-0.262, -1.478e-3
-0.261, -1.528e-3
-0.260, -1.584e-3
-0.259, -1.635e-3
-0.258, -1.693e-3
-0.257, -1.746e-3
-0.256, -1.805e-3
-0.255, -1.857e-3
-0.254, -1.914e-3
-0.253, -1.966e-3
-0.252, -2.025e-3
-0.251, -2.074e-3
-0.250, -2.133e-3
-0.249, -2.185e-3
-0.248, -2.242e-3
-0.247, -2.295e-3
-0.246, -2.353e-3
-0.245, -2.404e-3
-0.244, -2.462e-3
-0.243, -2.512e-3
-0.242, -2.570e-3
-0.241, -2.622e-3
-0.240, -2.678e-3
-0.239, -2.731e-3
-0.238, -2.789e-3
-0.237, -2.841e-3
-0.236, -2.898e-3
-0.235, -2.946e-3
-0.234, -3.002e-3
-0.233, -3.054e-3
-0.232, -3.111e-3
-0.231, -3.162e-3
-0.230, -3.218e-3
-0.229, -3.270e-3
-0.228, -3.327e-3
-0.227, -3.377e-3
-0.226, -3.432e-3
-0.225, -3.482e-3
-0.224, -3.542e-3
-0.223, -3.592e-3
-0.222, -3.645e-3
-0.221, -3.693e-3
-0.220, -3.749e-3
-0.219, -3.799e-3
-0.218, -3.855e-3
-0.217, -3.908e-3
-0.216, -3.963e-3
-0.215, -4.015e-3
-0.214, -4.070e-3
-0.213, -4.120e-3
-0.212, -4.176e-3
-0.211, -4.227e-3
-0.210, -4.283e-3
-0.209, -4.334e-3
-0.208, -4.389e-3
-0.207, -4.438e-3
-0.206, -4.493e-3
-0.205, -4.545e-3
-0.204, -4.602e-3
-0.203, -4.651e-3
-0.202, -4.706e-3
-0.201, -4.757e-3
-0.200, -4.812e-3
-0.199, -4.861e-3
-0.198, -4.917e-3
-0.197, -4.968e-3
-0.196, -5.024e-3
-0.195, -5.073e-3
-0.194, -5.127e-3
-0.193, -5.177e-3
-0.192, -5.233e-3
-0.191, -5.283e-3
-0.190, -5.337e-3
-0.189, -5.383e-3
-0.188, -5.439e-3
-0.187, -5.486e-3
-0.186, -5.541e-3
-0.185, -5.591e-3
-0.184, -5.644e-3
-0.183, -5.693e-3
-0.182, -5.747e-3
-0.181, -5.798e-3
-0.180, -5.852e-3
-0.179, -5.900e-3
-0.178, -5.954e-3
-0.177, -6.004e-3
-0.176, -6.059e-3
-0.175, -6.108e-3
-0.174, -6.161e-3
-0.173, -6.212e-3
-0.172, -6.267e-3
-0.171, -6.315e-3
-0.170, -6.369e-3
-0.169, -6.418e-3
-0.168, -6.473e-3
-0.167, -6.523e-3
-0.166, -6.578e-3
-0.165, -6.624e-3
-0.164, -6.677e-3
-0.163, -6.726e-3
-0.162, -6.781e-3
-0.161, -6.828e-3
-0.160, -6.882e-3
-0.159, -6.933e-3
-0.158, -6.987e-3
-0.157, -7.036e-3
-0.156, -7.090e-3
-0.155, -7.136e-3
-0.154, -7.191e-3
-0.153, -7.242e-3
-0.152, -7.295e-3
-0.151, -7.343e-3
-0.150, -7.398e-3
-0.149, -7.445e-3
-0.148, -7.501e-3
-0.147, -7.549e-3
-0.146, -7.603e-3
-0.145, -7.650e-3
-0.144, -7.704e-3
-0.143, -7.753e-3
-0.142, -7.807e-3
-0.141, -7.853e-3
-0.140, -7.907e-3
-0.139, -7.953e-3
-0.138, -8.007e-3
-0.137, -8.054e-3
-0.136, -8.108e-3
-0.135, -8.156e-3
-0.134, -8.212e-3
-0.133, -8.258e-3
-0.132, -8.310e-3
-0.131, -8.356e-3
-0.130, -8.411e-3
-0.129, -8.459e-3
-0.128, -8.515e-3
-0.127, -8.560e-3
-0.126, -8.612e-3
-0.125, -8.660e-3
-0.124, -8.715e-3
-0.123, -8.757e-3
-0.122, -8.809e-3
-0.121, -8.857e-3
-0.120, -8.914e-3
-0.119, -8.960e-3
-0.118, -9.012e-3
-0.117, -9.056e-3
-0.116, -9.111e-3
-0.115, -9.157e-3
-0.114, -9.210e-3
-0.113, -9.256e-3
-0.112, -9.309e-3
-0.111, -9.356e-3
-0.110, -9.406e-3
-0.109, -9.451e-3
-0.108, -9.505e-3
-0.107, -9.551e-3
-0.106, -9.605e-3
-0.105, -9.651e-3
-0.104, -9.704e-3
-0.103, -9.751e-3
-0.102, -9.805e-3
-0.101, -9.850e-3
-0.100, -9.905e-3
-0.099, -9.950e-3
-0.098, -1.000e-2
-0.097, -1.004e-2
-0.096, -1.010e-2
-0.095, -1.014e-2
-0.094, -1.020e-2
-0.093, -1.024e-2
-0.092, -1.029e-2
-0.091, -1.034e-2
-0.090, -1.040e-2
-0.089, -1.044e-2
-0.088, -1.049e-2
-0.087, -1.054e-2
-0.086, -1.059e-2
-0.085, -1.064e-2
-0.084, -1.069e-2
-0.083, -1.073e-2
-0.082, -1.079e-2
-0.081, -1.083e-2
-0.080, -1.089e-2
-0.079, -1.093e-2
-0.078, -1.098e-2
-0.077, -1.103e-2
-0.076, -1.108e-2
-0.075, -1.113e-2
-0.074, -1.118e-2
-0.073, -1.122e-2
-0.072, -1.128e-2
-0.071, -1.132e-2
-0.070, -1.138e-2
-0.069, -1.142e-2
-0.068, -1.147e-2
-0.067, -1.152e-2
-0.066, -1.157e-2
-0.065, -1.162e-2
-0.064, -1.167e-2
-0.063, -1.171e-2
-0.062, -1.177e-2
-0.061, -1.181e-2
-0.060, -1.187e-2
-0.059, -1.191e-2
-0.058, -1.196e-2
-0.057, -1.201e-2
-0.056, -1.206e-2
-0.055, -1.210e-2
-0.054, -1.215e-2
-0.053, -1.220e-2
-0.052, -1.225e-2
-0.051, -1.230e-2
-0.050, -1.235e-2
-0.049, -1.239e-2
-0.048, -1.245e-2
-0.047, -1.249e-2
-0.046, -1.254e-2
-0.045, -1.259e-2
-0.044, -1.264e-2
-0.043, -1.268e-2
-0.042, -1.274e-2
-0.041, -1.278e-2
-0.040, -1.283e-2
-0.039, -1.288e-2
-0.038, -1.293e-2
-0.037, -1.297e-2
-0.036, -1.303e-2
-0.035, -1.307e-2
-0.034, -1.312e-2
-0.033, -1.316e-2
-0.032, -1.322e-2
-0.031, -1.326e-2
-0.030, -1.331e-2
-0.029, -1.336e-2
-0.028, -1.341e-2
-0.027, -1.345e-2
-0.026, -1.350e-2
-0.025, -1.354e-2
-0.024, -1.360e-2
-0.023, -1.364e-2
-0.022, -1.369e-2
-0.021, -1.374e-2
-0.020, -1.379e-2
-0.019, -1.383e-2
-0.018, -1.389e-2
-0.017, -1.393e-2
-0.016, -1.398e-2
-0.015, -1.403e-2
-0.014, -1.408e-2
-0.013, -1.412e-2
-0.012, -1.417e-2
-0.011, -1.422e-2
-0.010, -1.427e-2
-0.009, -1.431e-2
-0.008, -1.436e-2
-0.007, -1.441e-2
-0.006, -1.446e-2
-0.005, -1.450e-2
-0.004, -1.456e-2
-0.003, -1.460e-2
-0.002, -1.465e-2
-0.001, -1.470e-2
-0.000, -1.476e-2
0.001, -1.480e-2
0.002, -1.485e-2
0.003, -1.490e-2
0.004, -1.495e-2
0.005, -1.499e-2
0.006, -1.504e-2
0.007, -1.509e-2
0.008, -1.514e-2
0.009, -1.518e-2
0.010, -1.523e-2
0.011, -1.528e-2
0.012, -1.533e-2
0.013, -1.538e-2
0.014, -1.543e-2
0.015, -1.548e-2
0.016, -1.553e-2
0.017, -1.557e-2
0.018, -1.562e-2
0.019, -1.567e-2
0.020, -1.572e-2
0.021, -1.576e-2
0.022, -1.581e-2
0.023, -1.586e-2
0.024, -1.591e-2
0.025, -1.595e-2
0.026, -1.601e-2
0.027, -1.605e-2
0.028, -1.610e-2
0.029, -1.615e-2
0.030, -1.620e-2
0.031, -1.624e-2
0.032, -1.630e-2
0.033, -1.634e-2
0.034, -1.639e-2
0.035, -1.643e-2
0.036, -1.649e-2
0.037, -1.653e-2
0.038, -1.658e-2
0.039, -1.663e-2
0.040, -1.668e-2
0.041, -1.672e-2
0.042, -1.678e-2
0.043, -1.682e-2
0.044, -1.686e-2
0.045, -1.691e-2
0.046, -1.696e-2
0.047, -1.700e-2
0.048, -1.705e-2
0.049, -1.710e-2
0.050, -1.715e-2
0.051, -1.719e-2
0.052, -1.724e-2
0.053, -1.728e-2
0.054, -1.733e-2
0.055, -1.738e-2
0.056, -1.743e-2
0.057, -1.747e-2
0.058, -1.752e-2
0.059, -1.757e-2
0.060, -1.762e-2
0.061, -1.766e-2
0.062, -1.772e-2
0.063, -1.776e-2
0.064, -1.781e-2
0.065, -1.785e-2
0.066, -1.791e-2
0.067, -1.795e-2
0.068, -1.800e-2
0.069, -1.804e-2
0.070, -1.810e-2
0.071, -1.814e-2
0.072, -1.819e-2
0.073, -1.824e-2
0.074, -1.829e-2
0.075, -1.833e-2
0.076, -1.839e-2
0.077, -1.843e-2
0.078, -1.849e-2
0.079, -1.853e-2
0.080, -1.858e-2
0.081, -1.862e-2
0.082, -1.867e-2
0.083, -1.872e-2
0.084, -1.877e-2
0.085, -1.882e-2
0.086, -1.887e-2
0.087, -1.891e-2
0.088, -1.897e-2
0.089, -1.901e-2
0.090, -1.906e-2
0.091, -1.911e-2
0.092, -1.916e-2
0.093, -1.920e-2
0.094, -1.925e-2
0.095, -1.929e-2
0.096, -1.934e-2
0.097, -1.938e-2
0.098, -1.944e-2
0.099, -1.948e-2
0.100, -1.953e-2
0.101, -1.958e-2
0.102, -1.963e-2
0.103, -1.968e-2
0.104, -1.973e-2
0.105, -1.978e-2
0.106, -1.983e-2
0.107, -1.987e-2
0.108, -1.993e-2
0.109, -1.997e-2
0.110, -2.003e-2
0.111, -2.007e-2
0.112, -2.012e-2
0.113, -2.017e-2
0.114, -2.022e-2
0.115, -2.026e-2
0.116, -2.032e-2
0.117, -2.036e-2
0.118, -2.042e-2
0.119, -2.046e-2
0.120, -2.052e-2
0.121, -2.056e-2
0.122, -2.061e-2
0.123, -2.066e-2
0.124, -2.071e-2
0.125, -2.076e-2
0.126, -2.081e-2
0.127, -2.086e-2
0.128, -2.091e-2
0.129, -2.096e-2
0.130, -2.101e-2
0.131, -2.105e-2
0.132, -2.111e-2
0.133, -2.115e-2
0.134, -2.120e-2
0.135, -2.125e-2
0.136, -2.130e-2
0.137, -2.134e-2
0.138, -2.140e-2
0.139, -2.144e-2
0.140, -2.150e-2
0.141, -2.154e-2
0.142, -2.159e-2
0.143, -2.164e-2
0.144, -2.169e-2
0.145, -2.174e-2
0.146, -2.179e-2
0.147, -2.184e-2
0.148, -2.189e-2
0.149, -2.194e-2
0.150, -2.199e-2
0.151, -2.204e-2
0.152, -2.209e-2
0.153, -2.213e-2
0.154, -2.219e-2
0.155, -2.224e-2
0.156, -2.229e-2
0.157, -2.233e-2
0.158, -2.238e-2
0.159, -2.243e-2
0.160, -2.248e-2
0.161, -2.253e-2
0.162, -2.258e-2
0.163, -2.263e-2
0.164, -2.268e-2
0.165, -2.272e-2
0.166, -2.278e-2
0.167, -2.282e-2
0.168, -2.288e-2
0.169, -2.292e-2
0.170, -2.297e-2
0.171, -2.302e-2
0.172, -2.307e-2
0.173, -2.312e-2
0.174, -2.317e-2
0.175, -2.322e-2
0.176, -2.327e-2
0.177, -2.331e-2
0.178, -2.337e-2
0.179, -2.341e-2
0.180, -2.347e-2
0.181, -2.351e-2
0.182, -2.356e-2
0.183, -2.361e-2
0.184, -2.366e-2
0.185, -2.370e-2
0.186, -2.376e-2
0.187, -2.380e-2
0.188, -2.386e-2
0.189, -2.390e-2
0.190, -2.395e-2
0.191, -2.400e-2
0.192, -2.405e-2
0.193, -2.409e-2
0.194, -2.415e-2
0.195, -2.419e-2
0.196, -2.425e-2
0.197, -2.429e-2
0.198, -2.434e-2
0.199, -2.439e-2
0.200, -2.444e-2
0.201, -2.448e-2
0.202, -2.453e-2
0.203, -2.457e-2
0.204, -2.463e-2
0.205, -2.467e-2
0.206, -2.473e-2
0.207, -2.477e-2
0.208, -2.482e-2
0.209, -2.486e-2
0.210, -2.492e-2
0.211, -2.496e-2
0.212, -2.501e-2
0.213, -2.506e-2
0.214, -2.511e-2
0.215, -2.515e-2
0.216, -2.520e-2
0.217, -2.524e-2
0.218, -2.530e-2
0.219, -2.534e-2
0.220, -2.539e-2
0.221, -2.543e-2
0.222, -2.549e-2
0.223, -2.553e-2
0.224, -2.558e-2
0.225, -2.563e-2
0.226, -2.568e-2
0.227, -2.572e-2
0.228, -2.577e-2
0.229, -2.581e-2
0.230, -2.586e-2
0.231, -2.591e-2
0.232, -2.596e-2
0.233, -2.600e-2
0.234, -2.605e-2
0.235, -2.609e-2
0.236, -2.615e-2
0.237, -2.619e-2
0.238, -2.624e-2
0.239, -2.628e-2
0.240, -2.633e-2
0.241, -2.638e-2
0.242, -2.643e-2
0.243, -2.647e-2
0.244, -2.652e-2
0.245, -2.657e-2
0.246, -2.662e-2
0.247, -2.666e-2
0.248, -2.671e-2
0.249, -2.675e-2
0.250, -2.680e-2
0.251, -2.684e-2
0.252, -2.690e-2
0.253, -2.694e-2
0.254, -2.699e-2
0.255, -2.703e-2
0.256, -2.708e-2
0.257, -2.713e-2
0.258, -2.717e-2
0.259, -2.722e-2
0.260, -2.727e-2
0.261, -2.731e-2
0.262, -2.736e-2
0.263, -2.741e-2
0.264, -2.746e-2
0.265, -2.750e-2
0.266, -2.755e-2
0.267, -2.759e-2
0.268, -2.764e-2
0.269, -2.768e-2
0.270, -2.773e-2
0.271, -2.778e-2
0.272, -2.782e-2
0.273, -2.787e-2
0.274, -2.792e-2
0.275, -2.796e-2
0.276, -2.801e-2
0.277, -2.805e-2
0.278, -2.810e-2
0.279, -2.814e-2
0.280, -2.819e-2
0.281, -2.823e-2
0.282, -2.828e-2
0.283, -2.832e-2
0.284, -2.837e-2
0.285, -2.842e-2
0.286, -2.847e-2
0.287, -2.851e-2
0.288, -2.856e-2
0.289, -2.860e-2
0.290, -2.865e-2
0.291, -2.869e-2
0.292, -2.874e-2
0.293, -2.878e-2
0.294, -2.883e-2
0.295, -2.888e-2
0.296, -2.892e-2
0.297, -2.897e-2
0.298, -2.901e-2
0.299, -2.905e-2
0.300, -2.910e-2
0.301, -2.914e-2
0.302, -2.919e-2
0.303, -2.923e-2
0.304, -2.928e-2
0.305, -2.932e-2
0.306, -2.937e-2
0.307, -2.941e-2
0.308, -2.947e-2
0.309, -2.951e-2
0.310, -2.956e-2
0.311, -2.960e-2
0.312, -2.965e-2
0.313, -2.969e-2
0.314, -2.974e-2
0.315, -2.978e-2
0.316, -2.983e-2
0.317, -2.987e-2
0.318, -2.992e-2
0.319, -2.996e-2
0.320, -3.001e-2
0.321, -3.005e-2
0.322, -3.010e-2
0.323, -3.014e-2
0.324, -3.019e-2
0.325, -3.023e-2
0.326, -3.028e-2
0.327, -3.032e-2
0.328, -3.037e-2
0.329, -3.041e-2
0.330, -3.046e-2
0.331, -3.050e-2
0.332, -3.055e-2
0.333, -3.059e-2
0.334, -3.064e-2
0.335, -3.068e-2
0.336, -3.073e-2
0.337, -3.077e-2
0.338, -3.082e-2
0.339, -3.086e-2
0.340, -3.091e-2
0.341, -3.095e-2
0.342, -3.100e-2
0.343, -3.105e-2
0.344, -3.110e-2
0.345, -3.114e-2
0.346, -3.119e-2
0.347, -3.123e-2
0.348, -3.127e-2
0.349, -3.132e-2
0.350, -3.136e-2
0.351, -3.140e-2
0.352, -3.146e-2
0.353, -3.150e-2
0.354, -3.155e-2
0.355, -3.159e-2
0.356, -3.164e-2
0.357, -3.168e-2
0.358, -3.174e-2
0.359, -3.178e-2
0.360, -3.182e-2
0.361, -3.186e-2
0.362, -3.191e-2
0.363, -3.196e-2
0.364, -3.200e-2
0.365, -3.205e-2
0.366, -3.209e-2
0.367, -3.213e-2
0.368, -3.218e-2
0.369, -3.222e-2
0.370, -3.227e-2
0.371, -3.231e-2
0.372, -3.236e-2
0.373, -3.240e-2
0.374, -3.245e-2
0.375, -3.249e-2
0.376, -3.254e-2
0.377, -3.258e-2
0.378, -3.263e-2
0.379, -3.267e-2
0.380, -3.272e-2
0.381, -3.276e-2
0.382, -3.281e-2
0.383, -3.285e-2
0.384, -3.290e-2
0.385, -3.294e-2
0.386, -3.298e-2
0.387, -3.302e-2
0.388, -3.307e-2
0.389, -3.311e-2
0.390, -3.316e-2
0.391, -3.320e-2
0.392, -3.325e-2
0.393, -3.329e-2
0.394, -3.334e-2
0.395, -3.338e-2
0.396, -3.342e-2
0.397, -3.346e-2
0.398, -3.351e-2
0.399, -3.355e-2
0.400, -3.360e-2
0.401, -3.364e-2
0.402, -3.369e-2
0.403, -3.373e-2
0.404, -3.378e-2
0.405, -3.382e-2
0.406, -3.386e-2
0.407, -3.391e-2
0.408, -3.396e-2
0.409, -3.400e-2
0.410, -3.405e-2
0.411, -3.409e-2
0.412, -3.414e-2
0.413, -3.417e-2
0.414, -3.422e-2
0.415, -3.426e-2
0.416, -3.431e-2
0.417, -3.435e-2
0.418, -3.439e-2
0.419, -3.443e-2
0.420, -3.448e-2
0.421, -3.452e-2
0.422, -3.456e-2
0.423, -3.460e-2
0.424, -3.465e-2
0.425, -3.469e-2
0.426, -3.474e-2
0.427, -3.477e-2
0.428, -3.482e-2
0.429, -3.486e-2
0.430, -3.491e-2
0.431, -3.495e-2
0.432, -3.499e-2
0.433, -3.503e-2
0.434, -3.507e-2
0.435, -3.511e-2
0.436, -3.516e-2
0.437, -3.520e-2
0.438, -3.524e-2
0.439, -3.528e-2
0.440, -3.533e-2
0.441, -3.537e-2
0.442, -3.542e-2
0.443, -3.545e-2
0.444, -3.550e-2
0.445, -3.554e-2
0.446, -3.559e-2
0.447, -3.562e-2
0.448, -3.567e-2
0.449, -3.571e-2
0.450, -3.576e-2
0.451, -3.580e-2
0.452, -3.585e-2
0.453, -3.589e-2
0.454, -3.593e-2
0.455, -3.597e-2
0.456, -3.602e-2
0.457, -3.606e-2
0.458, -3.610e-2
0.459, -3.614e-2
0.460, -3.619e-2
0.461, -3.623e-2
0.462, -3.628e-2
0.463, -3.632e-2
0.464, -3.637e-2
0.465, -3.641e-2
0.466, -3.646e-2
0.467, -3.650e-2
0.468, -3.655e-2
0.469, -3.658e-2
0.470, -3.663e-2
0.471, -3.667e-2
0.472, -3.672e-2
0.473, -3.676e-2
0.474, -3.681e-2
0.475, -3.685e-2
0.476, -3.690e-2
0.477, -3.693e-2
0.478, -3.698e-2
0.479, -3.702e-2
0.480, -3.707e-2
0.481, -3.712e-2
0.482, -3.717e-2
0.483, -3.721e-2
0.484, -3.726e-2
0.485, -3.730e-2
0.486, -3.735e-2
0.487, -3.740e-2
0.488, -3.745e-2
0.489, -3.749e-2
0.490, -3.754e-2
0.491, -3.759e-2
0.492, -3.764e-2
0.493, -3.768e-2
0.494, -3.773e-2
0.495, -3.778e-2
0.496, -3.783e-2
0.497, -3.787e-2
0.498, -3.792e-2
0.499, -3.797e-2
0.500, -3.802e-2
0.501, -3.807e-2
0.502, -3.812e-2
0.503, -3.816e-2
0.504, -3.821e-2
0.505, -3.826e-2
0.506, -3.831e-2
0.507, -3.836e-2
0.508, -3.841e-2
0.509, -3.846e-2
0.510, -3.852e-2
0.511, -3.856e-2
0.512, -3.862e-2
0.513, -3.866e-2
0.514, -3.872e-2
0.515, -3.877e-2
0.516, -3.882e-2
0.517, -3.887e-2
0.518, -3.892e-2
0.519, -3.897e-2
0.520, -3.902e-2
0.521, -3.907e-2
0.522, -3.912e-2
0.523, -3.917e-2
0.524, -3.923e-2
0.525, -3.928e-2
0.526, -3.933e-2
0.527, -3.938e-2
0.528, -3.944e-2
0.529, -3.949e-2
0.530, -3.955e-2
0.531, -3.960e-2
0.532, -3.965e-2
0.533, -3.970e-2
0.534, -3.976e-2
0.535, -3.981e-2
0.536, -3.987e-2
0.537, -3.992e-2
0.538, -3.998e-2
0.539, -4.003e-2
0.540, -4.009e-2
0.541, -4.014e-2
0.542, -4.020e-2
0.543, -4.025e-2
0.544, -4.031e-2
0.545, -4.036e-2
0.546, -4.042e-2
0.547, -4.047e-2
0.548, -4.053e-2
0.549, -4.059e-2
0.550, -4.065e-2
0.551, -4.070e-2
0.552, -4.076e-2
0.553, -4.081e-2
0.554, -4.087e-2
0.555, -4.092e-2
0.556, -4.098e-2
0.557, -4.103e-2
0.558, -4.109e-2
0.559, -4.115e-2
0.560, -4.120e-2
0.561, -4.126e-2
0.562, -4.132e-2
0.563, -4.137e-2
0.564, -4.143e-2
0.565, -4.148e-2
0.566, -4.154e-2
0.567, -4.159e-2
0.568, -4.164e-2
0.569, -4.169e-2
0.570, -4.175e-2
0.571, -4.180e-2
0.572, -4.186e-2
0.573, -4.191e-2
0.574, -4.196e-2
0.575, -4.201e-2
0.576, -4.207e-2
0.577, -4.212e-2
0.578, -4.217e-2
0.579, -4.222e-2
0.580, -4.227e-2
0.581, -4.232e-2
0.582, -4.237e-2
0.583, -4.242e-2
0.584, -4.247e-2
0.585, -4.252e-2
0.586, -4.257e-2
0.587, -4.262e-2
0.588, -4.267e-2
0.589, -4.271e-2
0.590, -4.276e-2
0.591, -4.280e-2
0.592, -4.285e-2
0.593, -4.289e-2
0.594, -4.294e-2
0.595, -4.299e-2
0.596, -4.303e-2
0.597, -4.307e-2
0.598, -4.312e-2
0.599, -4.316e-2
0.600, -4.320e-2
0.601, -4.324e-2
0.602, -4.328e-2
0.603, -4.332e-2
0.604, -4.336e-2
0.605, -4.340e-2
0.606, -4.344e-2
0.607, -4.348e-2
0.608, -4.352e-2
0.609, -4.355e-2
0.610, -4.359e-2
0.611, -4.363e-2
0.612, -4.366e-2
0.613, -4.369e-2
0.614, -4.373e-2
0.615, -4.377e-2
0.616, -4.381e-2
0.617, -4.384e-2
0.618, -4.387e-2
0.619, -4.390e-2
0.620, -4.394e-2
0.621, -4.397e-2
0.622, -4.401e-2
0.623, -4.404e-2
0.624, -4.407e-2
0.625, -4.409e-2
0.626, -4.413e-2
0.627, -4.417e-2
0.628, -4.421e-2
0.629, -4.423e-2
0.630, -4.427e-2
0.631, -4.429e-2
0.632, -4.432e-2
0.633, -4.435e-2
0.634, -4.438e-2
0.635, -4.440e-2
0.636, -4.443e-2
0.637, -4.446e-2
0.638, -4.449e-2
0.639, -4.451e-2
0.640, -4.454e-2
0.641, -4.457e-2
0.642, -4.459e-2
0.643, -4.462e-2
0.644, -4.465e-2
0.645, -4.467e-2
0.646, -4.470e-2
0.647, -4.472e-2
0.648, -4.475e-2
0.649, -4.477e-2
0.650, -4.479e-2
0.651, -4.481e-2
0.652, -4.484e-2
0.653, -4.486e-2
0.654, -4.488e-2
0.655, -4.490e-2
0.656, -4.492e-2
0.657, -4.495e-2
0.658, -4.497e-2
0.659, -4.500e-2
0.660, -4.502e-2
0.661, -4.504e-2
0.662, -4.506e-2
0.663, -4.508e-2
0.664, -4.510e-2
0.665, -4.512e-2
0.666, -4.514e-2
0.667, -4.516e-2
0.668, -4.518e-2
0.669, -4.520e-2
0.670, -4.522e-2
0.671, -4.524e-2
0.672, -4.526e-2
0.673, -4.527e-2
0.674, -4.529e-2
0.675, -4.531e-2
0.676, -4.533e-2
0.677, -4.534e-2
0.678, -4.536e-2
0.679, -4.538e-2
0.680, -4.540e-2
0.681, -4.541e-2
0.682, -4.543e-2
0.683, -4.545e-2
0.684, -4.547e-2
0.685, -4.548e-2
0.686, -4.550e-2
0.687, -4.551e-2
0.688, -4.553e-2
0.689, -4.555e-2
0.690, -4.556e-2
0.691, -4.558e-2
0.692, -4.559e-2
0.693, -4.561e-2
0.694, -4.562e-2
0.695, -4.564e-2
0.696, -4.566e-2
0.697, -4.567e-2
0.698, -4.569e-2
0.699, -4.570e-2
0.700, -4.572e-2
0.701, -4.573e-2
0.702, -4.575e-2
0.703, -4.576e-2
0.704, -4.578e-2
0.705, -4.579e-2
0.706, -4.581e-2
0.707, -4.582e-2
0.708, -4.583e-2
0.709, -4.585e-2
0.710, -4.586e-2
0.711, -4.588e-2
0.712, -4.589e-2
0.713, -4.590e-2
0.714, -4.592e-2
0.715, -4.593e-2
0.716, -4.595e-2
0.717, -4.597e-2
0.718, -4.598e-2
0.719, -4.600e-2
0.720, -4.601e-2
0.721, -4.602e-2
0.722, -4.604e-2
0.723, -4.605e-2
0.724, -4.607e-2
0.725, -4.608e-2
0.726, -4.609e-2
0.727, -4.612e-2
0.728, -4.614e-2
0.729, -4.615e-2
0.730, -4.617e-2
0.731, -4.618e-2
0.732, -4.620e-2
0.733, -4.621e-2
0.734, -4.623e-2
0.735, -4.624e-2
0.736, -4.626e-2
0.737, -4.627e-2
0.738, -4.629e-2
0.739, -4.630e-2
0.740, -4.632e-2
0.741, -4.633e-2
0.742, -4.635e-2
0.743, -4.636e-2
0.744, -4.638e-2
0.745, -4.639e-2
0.746, -4.641e-2
0.747, -4.643e-2
0.748, -4.644e-2
0.749, -4.646e-2
0.750, -4.648e-2
0.751, -4.649e-2
0.752, -4.651e-2
0.753, -4.652e-2
0.754, -4.654e-2
0.755, -4.656e-2
0.756, -4.658e-2
0.757, -4.659e-2
0.758, -4.661e-2
0.759, -4.662e-2
0.760, -4.664e-2
0.761, -4.666e-2
0.762, -4.668e-2
0.763, -4.669e-2
0.764, -4.671e-2
0.765, -4.673e-2
0.766, -4.675e-2
0.767, -4.676e-2
0.768, -4.678e-2
0.769, -4.680e-2
0.770, -4.682e-2
0.771, -4.685e-2
0.772, -4.688e-2
0.773, -4.689e-2
0.774, -4.691e-2
0.775, -4.693e-2
0.776, -4.695e-2
0.777, -4.697e-2
0.778, -4.699e-2
0.779, -4.700e-2
0.780, -4.703e-2
0.781, -4.704e-2
0.782, -4.706e-2
0.783, -4.708e-2
0.784, -4.710e-2
0.785, -4.712e-2
0.786, -4.714e-2
0.787, -4.716e-2
0.788, -4.718e-2
0.789, -4.721e-2
0.790, -4.723e-2
0.791, -4.725e-2
0.792, -4.727e-2
0.793, -4.729e-2
0.794, -4.731e-2
0.795, -4.734e-2
0.796, -4.736e-2
0.797, -4.738e-2
0.798, -4.740e-2
0.799, -4.742e-2
0.800, -4.731e-2
0.799, -4.694e-2
0.798, -4.662e-2
0.797, -4.632e-2
0.796, -4.604e-2
0.795, -4.577e-2
0.794, -4.550e-2
0.793, -4.525e-2
0.792, -4.500e-2
0.791, -4.476e-2
0.790, -4.453e-2
0.789, -4.430e-2
0.788, -4.407e-2
0.787, -4.385e-2
0.786, -4.362e-2
0.785, -4.341e-2
0.784, -4.319e-2
0.783, -4.298e-2
0.782, -4.277e-2
0.781, -4.256e-2
0.780, -4.236e-2
0.779, -4.215e-2
0.778, -4.196e-2
0.777, -4.176e-2
0.776, -4.156e-2
0.775, -4.137e-2
0.774, -4.118e-2
0.773, -4.099e-2
0.772, -4.081e-2
0.771, -4.062e-2
0.770, -4.044e-2
0.769, -4.026e-2
0.768, -4.007e-2
0.767, -3.989e-2
0.766, -3.972e-2
0.765, -3.954e-2
0.764, -3.937e-2
0.763, -3.919e-2
0.762, -3.902e-2
0.761, -3.884e-2
0.760, -3.867e-2
0.759, -3.851e-2
0.758, -3.834e-2
0.757, -3.817e-2
0.756, -3.801e-2
0.755, -3.784e-2
0.754, -3.768e-2
0.753, -3.752e-2
0.752, -3.736e-2
0.751, -3.720e-2
0.750, -3.704e-2
0.749, -3.688e-2
0.748, -3.673e-2
0.747, -3.658e-2
0.746, -3.642e-2
0.745, -3.627e-2
0.744, -3.611e-2
0.743, -3.596e-2
0.742, -3.581e-2
0.741, -3.566e-2
0.740, -3.551e-2
0.739, -3.536e-2
0.738, -3.521e-2
0.737, -3.507e-2
0.736, -3.492e-2
0.735, -3.478e-2
0.734, -3.464e-2
0.733, -3.449e-2
0.732, -3.435e-2
0.731, -3.421e-2
0.730, -3.407e-2
0.729, -3.392e-2
0.728, -3.378e-2
0.727, -3.365e-2
0.726, -3.351e-2
0.725, -3.337e-2
0.724, -3.323e-2
0.723, -3.310e-2
0.722, -3.297e-2
0.721, -3.284e-2
0.720, -3.271e-2
0.719, -3.258e-2
0.718, -3.245e-2
0.717, -3.232e-2
0.716, -3.219e-2
0.715, -3.207e-2
0.714, -3.194e-2
0.713, -3.181e-2
0.712, -3.168e-2
0.711, -3.155e-2
0.710, -3.142e-2
0.709, -3.129e-2
0.708, -3.116e-2
0.707, -3.103e-2
0.706, -3.090e-2
0.705, -3.077e-2
0.704, -3.064e-2
0.703, -3.052e-2
0.702, -3.039e-2
0.701, -3.027e-2
0.700, -3.014e-2
0.699, -3.002e-2
0.698, -2.990e-2
0.697, -2.977e-2
0.696, -2.965e-2
0.695, -2.953e-2
0.694, -2.941e-2
0.693, -2.929e-2
0.692, -2.917e-2
0.691, -2.905e-2
0.690, -2.893e-2
0.689, -2.881e-2
0.688, -2.869e-2
0.687, -2.858e-2
0.686, -2.846e-2
0.685, -2.834e-2
0.684, -2.822e-2
0.683, -2.811e-2
0.682, -2.799e-2
0.681, -2.787e-2
0.680, -2.776e-2
0.679, -2.764e-2
0.678, -2.753e-2
0.677, -2.742e-2
0.676, -2.730e-2
0.675, -2.719e-2
0.674, -2.707e-2
0.673, -2.696e-2
0.672, -2.685e-2
0.671, -2.673e-2
0.670, -2.662e-2
0.669, -2.651e-2
0.668, -2.640e-2
0.667, -2.629e-2
0.666, -2.618e-2
0.665, -2.606e-2
0.664, -2.595e-2
0.663, -2.584e-2
0.662, -2.573e-2
0.661, -2.563e-2
0.660, -2.552e-2
0.659, -2.541e-2
0.658, -2.530e-2
0.657, -2.519e-2
0.656, -2.509e-2
0.655, -2.498e-2
0.654, -2.487e-2
0.653, -2.477e-2
0.652, -2.466e-2
0.651, -2.455e-2
0.650, -2.445e-2
0.649, -2.434e-2
0.648, -2.424e-2
0.647, -2.413e-2
0.646, -2.403e-2
0.645, -2.392e-2
0.644, -2.382e-2
0.643, -2.371e-2
0.642, -2.361e-2
0.641, -2.351e-2
0.640, -2.340e-2
0.639, -2.330e-2
0.638, -2.320e-2
0.637, -2.309e-2
0.636, -2.299e-2
0.635, -2.288e-2
0.634, -2.278e-2
0.633, -2.268e-2
0.632, -2.258e-2
0.631, -2.248e-2
0.630, -2.237e-2
0.629, -2.228e-2
0.628, -2.217e-2
0.627, -2.207e-2
0.626, -2.197e-2
0.625, -2.187e-2
0.624, -2.177e-2
0.623, -2.167e-2
0.622, -2.157e-2
0.621, -2.147e-2
0.620, -2.137e-2
0.619, -2.127e-2
0.618, -2.118e-2
0.617, -2.108e-2
0.616, -2.098e-2
0.615, -2.088e-2
0.614, -2.078e-2
0.613, -2.068e-2
0.612, -2.058e-2
0.611, -2.049e-2
0.610, -2.039e-2
0.609, -2.029e-2
0.608, -2.019e-2
0.607, -2.010e-2
0.606, -2.000e-2
0.605, -1.990e-2
0.604, -1.980e-2
0.603, -1.971e-2
0.602, -1.961e-2
0.601, -1.951e-2
0.600, -1.942e-2
0.599, -1.932e-2
0.598, -1.924e-2
0.597, -1.915e-2
0.596, -1.906e-2
0.595, -1.896e-2
0.594, -1.886e-2
0.593, -1.877e-2
0.592, -1.867e-2
0.591, -1.858e-2
0.590, -1.848e-2
0.589, -1.839e-2
0.588, -1.829e-2
0.587, -1.820e-2
0.586, -1.810e-2
0.585, -1.800e-2
0.584, -1.791e-2
0.583, -1.781e-2
0.582, -1.772e-2
0.581, -1.762e-2
0.580, -1.752e-2
0.579, -1.743e-2
0.578, -1.733e-2
0.577, -1.724e-2
0.576, -1.715e-2
0.575, -1.706e-2
0.574, -1.696e-2
0.573, -1.687e-2
0.572, -1.677e-2
0.571, -1.668e-2
0.570, -1.658e-2
0.569, -1.649e-2
0.568, -1.639e-2
0.567, -1.630e-2
0.566, -1.620e-2
0.565, -1.611e-2
0.564, -1.601e-2
0.563, -1.592e-2
0.562, -1.582e-2
0.561, -1.573e-2
0.560, -1.563e-2
0.559, -1.554e-2
0.558, -1.545e-2
0.557, -1.535e-2
0.556, -1.525e-2
0.555, -1.516e-2
0.554, -1.506e-2
0.553, -1.497e-2
0.552, -1.488e-2
0.551, -1.478e-2
0.550, -1.469e-2
0.549, -1.459e-2
0.548, -1.450e-2
0.547, -1.441e-2
0.546, -1.431e-2
0.545, -1.422e-2
0.544, -1.412e-2
0.543, -1.403e-2
0.542, -1.393e-2
0.541, -1.384e-2
0.540, -1.374e-2
0.539, -1.365e-2
0.538, -1.356e-2
0.537, -1.346e-2
0.536, -1.337e-2
0.535, -1.328e-2
0.534, -1.318e-2
0.533, -1.309e-2
0.532, -1.299e-2
0.531, -1.290e-2
0.530, -1.281e-2
0.529, -1.271e-2
0.528, -1.262e-2
0.527, -1.252e-2
0.526, -1.243e-2
0.525, -1.233e-2
0.524, -1.223e-2
0.523, -1.214e-2
0.522, -1.205e-2
0.521, -1.196e-2
0.520, -1.186e-2
0.519, -1.176e-2
0.518, -1.167e-2
0.517, -1.157e-2
0.516, -1.148e-2
0.515, -1.138e-2
0.514, -1.129e-2
0.513, -1.119e-2
0.512, -1.109e-2
0.511, -1.100e-2
0.510, -1.091e-2
0.509, -1.081e-2
0.508, -1.071e-2
0.507, -1.062e-2
0.506, -1.052e-2
0.505, -1.043e-2
0.504, -1.033e-2
0.503, -1.024e-2
0.502, -1.014e-2
0.501, -1.005e-2
0.500, -9.958e-3
0.499, -9.862e-3
0.498, -9.765e-3
0.497, -9.673e-3
0.496, -9.577e-3
0.495, -9.485e-3
0.494, -9.390e-3
0.493, -9.298e-3
0.492, -9.201e-3
0.491, -9.109e-3
0.490, -9.013e-3
0.489, -8.921e-3
0.488, -8.824e-3
0.487, -8.733e-3
0.486, -8.637e-3
0.485, -8.545e-3
0.484, -8.447e-3
0.483, -8.353e-3
0.482, -8.258e-3
0.481, -8.166e-3
0.480, -8.069e-3
0.479, -7.974e-3
0.478, -7.881e-3
0.477, -7.791e-3
0.476, -7.693e-3
0.475, -7.602e-3
0.474, -7.506e-3
0.473, -7.413e-3
0.472, -7.316e-3
0.471, -7.224e-3
0.470, -7.129e-3
0.469, -7.038e-3
0.468, -6.942e-3
0.467, -6.849e-3
0.466, -6.753e-3
0.465, -6.662e-3
0.464, -6.570e-3
0.463, -6.479e-3
0.462, -6.383e-3
0.461, -6.292e-3
0.460, -6.195e-3
0.459, -6.105e-3
0.458, -6.010e-3
0.457, -5.920e-3
0.456, -5.827e-3
0.455, -5.737e-3
0.454, -5.643e-3
0.453, -5.555e-3
0.452, -5.463e-3
0.451, -5.375e-3
0.450, -5.283e-3
0.449, -5.195e-3
0.448, -5.103e-3
0.447, -5.013e-3
0.446, -4.919e-3
0.445, -4.832e-3
0.444, -4.738e-3
0.443, -4.653e-3
0.442, -4.558e-3
0.441, -4.470e-3
0.440, -4.381e-3
0.439, -4.293e-3
0.438, -4.202e-3
0.437, -4.115e-3
0.436, -4.023e-3
0.435, -3.938e-3
0.434, -3.845e-3
0.433, -3.760e-3
0.432, -3.671e-3
0.431, -3.590e-3
0.430, -3.502e-3
0.429, -3.416e-3
0.428, -3.327e-3
0.427, -3.243e-3
0.426, -3.154e-3
0.425, -3.071e-3
0.424, -2.982e-3
0.423, -2.900e-3
0.422, -2.815e-3
0.421, -2.731e-3
0.420, -2.644e-3
0.419, -2.562e-3
0.418, -2.475e-3
0.417, -2.395e-3
0.416, -2.309e-3
0.415, -2.227e-3
0.414, -2.143e-3
0.413, -2.062e-3
0.412, -1.981e-3
0.411, -1.902e-3
0.410, -1.814e-3
0.409, -1.731e-3
0.408, -1.650e-3
0.407, -1.575e-3
0.406, -1.497e-3
0.405, -1.423e-3
0.404, -1.343e-3
0.403, -1.265e-3
0.402, -1.185e-3
0.401, -1.111e-3
0.400, -1.031e-3
0.399, -9.569e-4
0.398, -8.793e-4
0.397, -8.045e-4
0.396, -7.265e-4
0.395, -6.552e-4
0.394, -5.751e-4
0.393, -5.022e-4
0.392, -4.236e-4
0.391, -3.523e-4
0.390, -2.728e-4
0.389, -2.030e-4
0.388, -1.253e-4
0.387, -5.596e-5
0.386, 2.209e-5
0.385, 9.259e-5
0.384, 1.671e-4
0.383, 2.387e-4
0.382, 3.127e-4
0.381, 3.861e-4
0.380, 4.641e-4
0.379, 5.313e-4
0.378, 6.089e-4
0.377, 6.792e-4
0.376, 7.541e-4
0.375, 8.248e-4
0.374, 8.990e-4
0.373, 9.678e-4
0.372, 1.040e-3
0.371, 1.109e-3
0.370, 1.184e-3
0.369, 1.253e-3
0.368, 1.325e-3
0.367, 1.392e-3
0.366, 1.464e-3
0.365, 1.534e-3
0.364, 1.606e-3
0.363, 1.672e-3
0.362, 1.746e-3
0.361, 1.811e-3
0.360, 1.883e-3
0.359, 1.951e-3
0.358, 2.025e-3
0.357, 2.089e-3
0.356, 2.163e-3
0.355, 2.227e-3
0.354, 2.297e-3
0.353, 2.359e-3
0.352, 2.430e-3
0.351, 2.495e-3
0.350, 2.564e-3
0.349, 2.629e-3
0.348, 2.699e-3
0.347, 2.762e-3
0.346, 2.833e-3
0.345, 2.897e-3
0.344, 2.967e-3
0.343, 3.031e-3
0.342, 3.098e-3
0.341, 3.160e-3
0.340, 3.229e-3
0.339, 3.292e-3
0.338, 3.361e-3
0.337, 3.424e-3
0.336, 3.494e-3
0.335, 3.554e-3
0.334, 3.621e-3
0.333, 3.683e-3
0.332, 3.751e-3
0.331, 3.810e-3
0.330, 3.879e-3
0.329, 3.940e-3
0.328, 4.006e-3
0.327, 4.066e-3
0.326, 4.133e-3
0.325, 4.194e-3
0.324, 4.263e-3
0.323, 4.321e-3
0.322, 4.385e-3
0.321, 4.444e-3
0.320, 4.508e-3
0.319, 4.568e-3
0.318, 4.633e-3
0.317, 4.692e-3
0.316, 4.755e-3
0.315, 4.811e-3
0.314, 4.876e-3
0.313, 4.935e-3
0.312, 4.999e-3
0.311, 5.055e-3
0.310, 5.120e-3
0.309, 5.176e-3
0.308, 5.239e-3
0.307, 5.297e-3
0.306, 5.361e-3
0.305, 5.420e-3
0.304, 5.482e-3
0.303, 5.539e-3
0.302, 5.602e-3
0.301, 5.658e-3
0.300, 5.719e-3
0.299, 5.773e-3
0.298, 5.837e-3
0.297, 5.894e-3
0.296, 5.953e-3
0.295, 6.010e-3
0.294, 6.073e-3
0.293, 6.128e-3
0.292, 6.190e-3
0.291, 6.244e-3
0.290, 6.305e-3
0.289, 6.358e-3
0.288, 6.420e-3
0.287, 6.476e-3
0.286, 6.536e-3
0.285, 6.592e-3
0.284, 6.654e-3
0.283, 6.707e-3
0.282, 6.769e-3
0.281, 6.824e-3
0.280, 6.886e-3
0.279, 6.940e-3
0.278, 6.999e-3
0.277, 7.054e-3
0.276, 7.114e-3
0.275, 7.168e-3
0.274, 7.230e-3
0.273, 7.286e-3
0.272, 7.347e-3
0.271, 7.400e-3
0.270, 7.460e-3
0.269, 7.515e-3
0.268, 7.577e-3
0.267, 7.631e-3
0.266, 7.692e-3
0.265, 7.746e-3
0.264, 7.806e-3
0.263, 7.861e-3
0.262, 7.920e-3
0.261, 7.974e-3
0.260, 8.038e-3
0.259, 8.089e-3
0.258, 8.150e-3
0.257, 8.204e-3
0.256, 8.267e-3
0.255, 8.323e-3
0.254, 8.383e-3
0.253, 8.437e-3
0.252, 8.499e-3
0.251, 8.551e-3
0.250, 8.615e-3
0.249, 8.669e-3
0.248, 8.728e-3
0.247, 8.783e-3
0.246, 8.845e-3
0.245, 8.896e-3
0.244, 8.957e-3
0.243, 9.010e-3
0.242, 9.072e-3
0.241, 9.123e-3
0.240, 9.181e-3
0.239, 9.237e-3
0.238, 9.300e-3
0.237, 9.354e-3
0.236, 9.415e-3
0.235, 9.466e-3
0.234, 9.528e-3
0.233, 9.581e-3
0.232, 9.641e-3
0.231, 9.694e-3
0.230, 9.755e-3
0.229, 9.807e-3
0.228, 9.868e-3
0.227, 9.920e-3
0.226, 9.982e-3
0.225, 1.003e-2
0.224, 1.009e-2
0.223, 1.015e-2
0.222, 1.021e-2
0.221, 1.026e-2
0.220, 1.032e-2
0.219, 1.036e-2
0.218, 1.043e-2
0.217, 1.048e-2
0.216, 1.054e-2
0.215, 1.059e-2
0.214, 1.065e-2
0.213, 1.071e-2
0.212, 1.077e-2
0.211, 1.082e-2
0.210, 1.088e-2
0.209, 1.093e-2
0.208, 1.099e-2
0.207, 1.104e-2
0.206, 1.110e-2
0.205, 1.116e-2
0.204, 1.122e-2
0.203, 1.127e-2
0.202, 1.133e-2
0.201, 1.138e-2
0.200, 1.144e-2
0.199, 1.149e-2
0.198, 1.155e-2
0.197, 1.161e-2
0.196, 1.166e-2
0.195, 1.172e-2
0.194, 1.178e-2
0.193, 1.183e-2
0.192, 1.189e-2
0.191, 1.194e-2
0.190, 1.200e-2
0.189, 1.205e-2
0.188, 1.210e-2
0.187, 1.214e-2
0.186, 1.220e-2
0.185, 1.225e-2
0.184, 1.231e-2
0.183, 1.236e-2
0.182, 1.242e-2
0.181, 1.247e-2
0.180, 1.253e-2
0.179, 1.258e-2
0.178, 1.264e-2
0.177, 1.269e-2
0.176, 1.275e-2
0.175, 1.280e-2
0.174, 1.286e-2
0.173, 1.291e-2
0.172, 1.297e-2
0.171, 1.302e-2
0.170, 1.308e-2
0.169, 1.313e-2
0.168, 1.319e-2
0.167, 1.324e-2
0.166, 1.330e-2
0.165, 1.335e-2
0.164, 1.341e-2
0.163, 1.346e-2
0.162, 1.352e-2
0.161, 1.356e-2
0.160, 1.362e-2
0.159, 1.368e-2
0.158, 1.373e-2
0.157, 1.378e-2
0.156, 1.384e-2
0.155, 1.389e-2
0.154, 1.395e-2
0.153, 1.400e-2
0.152, 1.406e-2
0.151, 1.411e-2
0.150, 1.416e-2
0.149, 1.421e-2
0.148, 1.427e-2
0.147, 1.431e-2
0.146, 1.437e-2
0.145, 1.442e-2
0.144, 1.448e-2
0.143, 1.453e-2
0.142, 1.459e-2
0.141, 1.464e-2
0.140, 1.470e-2
0.139, 1.474e-2
0.138, 1.480e-2
0.137, 1.485e-2
0.136, 1.491e-2
0.135, 1.496e-2
0.134, 1.502e-2
0.133, 1.506e-2
0.132, 1.512e-2
0.131, 1.517e-2
0.130, 1.523e-2
0.129, 1.528e-2
0.128, 1.534e-2
0.127, 1.539e-2
0.126, 1.545e-2
0.125, 1.550e-2
0.124, 1.555e-2
0.123, 1.560e-2
0.122, 1.566e-2
0.121, 1.571e-2
0.120, 1.577e-2
0.119, 1.582e-2
0.118, 1.587e-2
0.117, 1.592e-2
0.116, 1.598e-2
0.115, 1.603e-2
0.114, 1.609e-2
0.113, 1.614e-2
0.112, 1.620e-2
0.111, 1.625e-2
0.110, 1.630e-2
0.109, 1.635e-2
0.108, 1.641e-2
0.107, 1.646e-2
0.106, 1.652e-2
0.105, 1.657e-2
0.104, 1.663e-2
0.103, 1.668e-2
0.102, 1.674e-2
0.101, 1.679e-2
0.100, 1.685e-2
0.099, 1.690e-2
0.098, 1.695e-2
0.097, 1.700e-2
0.096, 1.706e-2
0.095, 1.711e-2
0.094, 1.717e-2
0.093, 1.722e-2
0.092, 1.728e-2
0.091, 1.732e-2
0.090, 1.738e-2
0.089, 1.743e-2
0.088, 1.749e-2
0.087, 1.754e-2
0.086, 1.759e-2
0.085, 1.764e-2
0.084, 1.771e-2
0.083, 1.776e-2
0.082, 1.781e-2
0.081, 1.786e-2
0.080, 1.792e-2
0.079, 1.797e-2
0.078, 1.802e-2
0.077, 1.807e-2
0.076, 1.813e-2
0.075, 1.818e-2
0.074, 1.823e-2
0.073, 1.828e-2
0.072, 1.834e-2
0.071, 1.839e-2
0.070, 1.845e-2
0.069, 1.850e-2
0.068, 1.855e-2
0.067, 1.860e-2
0.066, 1.866e-2
0.065, 1.871e-2
0.064, 1.877e-2
0.063, 1.882e-2
0.062, 1.887e-2
0.061, 1.892e-2
0.060, 1.898e-2
0.059, 1.902e-2
0.058, 1.908e-2
0.057, 1.913e-2
0.056, 1.919e-2
0.055, 1.924e-2
0.054, 1.930e-2
0.053, 1.935e-2
0.052, 1.940e-2
0.051, 1.945e-2
0.050, 1.951e-2
0.049, 1.956e-2
0.048, 1.962e-2
0.047, 1.967e-2
0.046, 1.972e-2
0.045, 1.977e-2
0.044, 1.983e-2
0.043, 1.988e-2
0.042, 1.994e-2
0.041, 1.999e-2
0.040, 2.004e-2
0.039, 2.009e-2
0.038, 2.015e-2
0.037, 2.019e-2
0.036, 2.025e-2
0.035, 2.030e-2
0.034, 2.036e-2
0.033, 2.041e-2
0.032, 2.046e-2
0.031, 2.051e-2
0.030, 2.057e-2
0.029, 2.062e-2
0.028, 2.067e-2
0.027, 2.072e-2
0.026, 2.078e-2
0.025, 2.083e-2
0.024, 2.088e-2
0.023, 2.093e-2
0.022, 2.099e-2
0.021, 2.103e-2
0.020, 2.109e-2
0.019, 2.114e-2
0.018, 2.120e-2
0.017, 2.124e-2
0.016, 2.130e-2
0.015, 2.135e-2
0.014, 2.140e-2
0.013, 2.145e-2
0.012, 2.150e-2
0.011, 2.155e-2
0.010, 2.161e-2
0.009, 2.166e-2
0.008, 2.171e-2
0.007, 2.176e-2
0.006, 2.182e-2
0.005, 2.186e-2
0.004, 2.192e-2
0.003, 2.196e-2
0.002, 2.202e-2
0.001, 2.206e-2
0.000, 2.213e-2
-0.001, 2.218e-2
-0.002, 2.223e-2
-0.003, 2.228e-2
-0.004, 2.233e-2
-0.005, 2.238e-2
-0.006, 2.244e-2
-0.007, 2.248e-2
-0.008, 2.254e-2
-0.009, 2.258e-2
-0.010, 2.264e-2
-0.011, 2.268e-2
-0.012, 2.274e-2
-0.013, 2.278e-2
-0.014, 2.284e-2
-0.015, 2.288e-2
-0.016, 2.294e-2
-0.017, 2.299e-2
-0.018, 2.304e-2
-0.019, 2.309e-2
-0.020, 2.315e-2
-0.021, 2.319e-2
-0.022, 2.324e-2
-0.023, 2.329e-2
-0.024, 2.334e-2
-0.025, 2.339e-2
-0.026, 2.345e-2
-0.027, 2.349e-2
-0.028, 2.355e-2
-0.029, 2.359e-2
-0.030, 2.364e-2
-0.031, 2.369e-2
-0.032, 2.375e-2
-0.033, 2.379e-2
-0.034, 2.384e-2
-0.035, 2.389e-2
-0.036, 2.394e-2
-0.037, 2.399e-2
-0.038, 2.404e-2
-0.039, 2.409e-2
-0.040, 2.414e-2
-0.041, 2.419e-2
-0.042, 2.424e-2
-0.043, 2.429e-2
-0.044, 2.434e-2
-0.045, 2.439e-2
-0.046, 2.444e-2
-0.047, 2.448e-2
-0.048, 2.454e-2
-0.049, 2.458e-2
-0.050, 2.463e-2
-0.051, 2.468e-2
-0.052, 2.474e-2
-0.053, 2.478e-2
-0.054, 2.483e-2
-0.055, 2.487e-2
-0.056, 2.493e-2
-0.057, 2.497e-2
-0.058, 2.503e-2
-0.059, 2.507e-2
-0.060, 2.512e-2
-0.061, 2.516e-2
-0.062, 2.522e-2
-0.063, 2.526e-2
-0.064, 2.531e-2
-0.065, 2.536e-2
-0.066, 2.541e-2
-0.067, 2.545e-2
-0.068, 2.551e-2
-0.069, 2.555e-2
-0.070, 2.560e-2
-0.071, 2.564e-2
-0.072, 2.570e-2
-0.073, 2.574e-2
-0.074, 2.579e-2
-0.075, 2.583e-2
-0.076, 2.588e-2
-0.077, 2.592e-2
-0.078, 2.597e-2
-0.079, 2.601e-2
-0.080, 2.607e-2
-0.081, 2.611e-2
-0.082, 2.616e-2
-0.083, 2.620e-2
-0.084, 2.625e-2
-0.085, 2.629e-2
-0.086, 2.634e-2
-0.087, 2.638e-2
-0.088, 2.644e-2
-0.089, 2.648e-2
-0.090, 2.653e-2
-0.091, 2.657e-2
-0.092, 2.662e-2
-0.093, 2.666e-2
-0.094, 2.671e-2
-0.095, 2.675e-2
-0.096, 2.681e-2
-0.097, 2.685e-2
-0.098, 2.690e-2
-0.099, 2.694e-2
-0.100, 2.699e-2
-0.101, 2.703e-2
-0.102, 2.708e-2
-0.103, 2.712e-2
-0.104, 2.717e-2
-0.105, 2.721e-2
-0.106, 2.726e-2
-0.107, 2.730e-2
-0.108, 2.735e-2
-0.109, 2.739e-2
-0.110, 2.744e-2
-0.111, 2.748e-2
-0.112, 2.753e-2
-0.113, 2.757e-2
-0.114, 2.762e-2
-0.115, 2.766e-2
-0.116, 2.771e-2
-0.117, 2.775e-2
-0.118, 2.779e-2
-0.119, 2.783e-2
-0.120, 2.788e-2
-0.121, 2.792e-2
-0.122, 2.797e-2
-0.123, 2.801e-2
-0.124, 2.806e-2
-0.125, 2.809e-2
-0.126, 2.814e-2
-0.127, 2.818e-2
-0.128, 2.823e-2
-0.129, 2.827e-2
-0.130, 2.831e-2
-0.131, 2.835e-2
-0.132, 2.840e-2
-0.133, 2.844e-2
-0.134, 2.849e-2
-0.135, 2.853e-2
-0.136, 2.857e-2
-0.137, 2.861e-2
-0.138, 2.866e-2
-0.139, 2.869e-2
-0.140, 2.874e-2
-0.141, 2.878e-2
-0.142, 2.882e-2
-0.143, 2.886e-2
-0.144, 2.891e-2
-0.145, 2.895e-2
-0.146, 2.899e-2
-0.147, 2.903e-2
-0.148, 2.908e-2
-0.149, 2.912e-2
-0.150, 2.916e-2
-0.151, 2.920e-2
-0.152, 2.925e-2
-0.153, 2.928e-2
-0.154, 2.933e-2
-0.155, 2.937e-2
-0.156, 2.941e-2
-0.157, 2.945e-2
-0.158, 2.949e-2
-0.159, 2.953e-2
-0.160, 2.958e-2
-0.161, 2.961e-2
-0.162, 2.966e-2
-0.163, 2.969e-2
-0.164, 2.974e-2
-0.165, 2.977e-2
-0.166, 2.982e-2
-0.167, 2.985e-2
-0.168, 2.990e-2
-0.169, 2.993e-2
-0.170, 2.998e-2
-0.171, 3.001e-2
-0.172, 3.005e-2
-0.173, 3.009e-2
-0.174, 3.013e-2
-0.175, 3.017e-2
-0.176, 3.021e-2
-0.177, 3.025e-2
-0.178, 3.029e-2
-0.179, 3.033e-2
-0.180, 3.037e-2
-0.181, 3.041e-2
-0.182, 3.045e-2
-0.183, 3.049e-2
-0.184, 3.053e-2
-0.185, 3.056e-2
-0.186, 3.061e-2
-0.187, 3.064e-2
-0.188, 3.069e-2
-0.189, 3.072e-2
-0.190, 3.076e-2
-0.191, 3.080e-2
-0.192, 3.084e-2
-0.193, 3.088e-2
-0.194, 3.092e-2
-0.195, 3.095e-2
-0.196, 3.099e-2
-0.197, 3.103e-2
-0.198, 3.107e-2
-0.199, 3.111e-2
-0.200, 3.115e-2
-0.201, 3.118e-2
-0.202, 3.122e-2
-0.203, 3.126e-2
-0.204, 3.130e-2
-0.205, 3.133e-2
-0.206, 3.138e-2
-0.207, 3.141e-2
-0.208, 3.145e-2
-0.209, 3.148e-2
-0.210, 3.153e-2
-0.211, 3.156e-2
-0.212, 3.160e-2
-0.213, 3.163e-2
-0.214, 3.167e-2
-0.215, 3.171e-2
-0.216, 3.175e-2
-0.217, 3.178e-2
-0.218, 3.182e-2
-0.219, 3.186e-2
-0.220, 3.190e-2
-0.221, 3.193e-2
-0.222, 3.197e-2
-0.223, 3.200e-2
-0.224, 3.205e-2
-0.225, 3.208e-2
-0.226, 3.212e-2
-0.227, 3.215e-2
-0.228, 3.219e-2
-0.229, 3.222e-2
-0.230, 3.227e-2
-0.231, 3.230e-2
-0.232, 3.234e-2
-0.233, 3.237e-2
-0.234, 3.241e-2
-0.235, 3.244e-2
-0.236, 3.248e-2
-0.237, 3.252e-2
-0.238, 3.256e-2
-0.239, 3.259e-2
-0.240, 3.263e-2
-0.241, 3.266e-2
-0.242, 3.270e-2
-0.243, 3.273e-2
-0.244, 3.277e-2
-0.245, 3.280e-2
-0.246, 3.284e-2
-0.247, 3.287e-2
-0.248, 3.291e-2
-0.249, 3.294e-2
-0.250, 3.298e-2
-0.251, 3.301e-2
-0.252, 3.305e-2
-0.253, 3.309e-2
-0.254, 3.312e-2
-0.255, 3.316e-2
-0.256, 3.320e-2
-0.257, 3.323e-2
-0.258, 3.327e-2
-0.259, 3.330e-2
-0.260, 3.334e-2
-0.261, 3.337e-2
-0.262, 3.341e-2
-0.263, 3.344e-2
-0.264, 3.348e-2
-0.265, 3.351e-2
-0.266, 3.355e-2
-0.267, 3.358e-2
-0.268, 3.362e-2
-0.269, 3.365e-2
-0.270, 3.368e-2
-0.271, 3.372e-2
-0.272, 3.375e-2
-0.273, 3.378e-2
-0.274, 3.382e-2
-0.275, 3.385e-2
-0.276, 3.389e-2
-0.277, 3.392e-2
-0.278, 3.396e-2
-0.279, 3.399e-2
-0.280, 3.403e-2
-0.281, 3.406e-2
-0.282, 3.410e-2
-0.283, 3.413e-2
-0.284, 3.416e-2
-0.285, 3.419e-2
-0.286, 3.423e-2
-0.287, 3.426e-2
-0.288, 3.430e-2
-0.289, 3.433e-2
-0.290, 3.437e-2
-0.291, 3.440e-2
-0.292, 3.444e-2
-0.293, 3.446e-2
-0.294, 3.450e-2
-0.295, 3.453e-2
-0.296, 3.457e-2
-0.297, 3.460e-2
-0.298, 3.464e-2
-0.299, 3.467e-2
-0.300, 3.471e-2
-0.301, 3.474e-2
-0.302, 3.478e-2
-0.303, 3.481e-2
-0.304, 3.484e-2
-0.305, 3.488e-2
-0.306, 3.491e-2
-0.307, 3.494e-2
-0.308, 3.498e-2
-0.309, 3.501e-2
-0.310, 3.505e-2
-0.311, 3.508e-2
-0.312, 3.511e-2
-0.313, 3.514e-2
-0.314, 3.518e-2
-0.315, 3.521e-2
-0.316, 3.525e-2
-0.317, 3.528e-2
-0.318, 3.532e-2
-0.319, 3.535e-2
-0.320, 3.538e-2
-0.321, 3.542e-2
-0.322, 3.545e-2
-0.323, 3.548e-2
-0.324, 3.552e-2
-0.325, 3.555e-2
-0.326, 3.559e-2
-0.327, 3.562e-2
-0.328, 3.565e-2
-0.329, 3.568e-2
-0.330, 3.572e-2
-0.331, 3.575e-2
-0.332, 3.579e-2
-0.333, 3.581e-2
-0.334, 3.585e-2
-0.335, 3.588e-2
-0.336, 3.592e-2
-0.337, 3.595e-2
-0.338, 3.598e-2
-0.339, 3.602e-2
-0.340, 3.605e-2
-0.341, 3.608e-2
-0.342, 3.612e-2
-0.343, 3.615e-2
-0.344, 3.619e-2
-0.345, 3.622e-2
-0.346, 3.625e-2
-0.347, 3.628e-2
-0.348, 3.632e-2
-0.349, 3.635e-2
-0.350, 3.638e-2
-0.351, 3.641e-2
-0.352, 3.645e-2
-0.353, 3.648e-2
-0.354, 3.652e-2
-0.355, 3.655e-2
-0.356, 3.658e-2
-0.357, 3.661e-2
-0.358, 3.665e-2
-0.359, 3.668e-2
-0.360, 3.672e-2
-0.361, 3.675e-2
-0.362, 3.678e-2
-0.363, 3.681e-2
-0.364, 3.685e-2
-0.365, 3.688e-2
-0.366, 3.692e-2
-0.367, 3.695e-2
-0.368, 3.698e-2
-0.369, 3.701e-2
-0.370, 3.705e-2
-0.371, 3.708e-2
-0.372, 3.712e-2
-0.373, 3.714e-2
-0.374, 3.718e-2
-0.375, 3.721e-2
-0.376, 3.724e-2
-0.377, 3.727e-2
-0.378, 3.731e-2
-0.379, 3.734e-2
-0.380, 3.738e-2
-0.381, 3.741e-2
-0.382, 3.744e-2
-0.383, 3.747e-2
-0.384, 3.751e-2
-0.385, 3.754e-2
-0.386, 3.757e-2
-0.387, 3.760e-2
-0.388, 3.764e-2
-0.389, 3.767e-2
-0.390, 3.770e-2
-0.391, 3.773e-2
-0.392, 3.777e-2
-0.393, 3.780e-2
-0.394, 3.783e-2
-0.395, 3.786e-2
-0.396, 3.790e-2
-0.397, 3.793e-2
-0.398, 3.797e-2
-0.399, 3.800e-2
-0.400, 3.803e-2
-0.401, 3.806e-2
-0.402, 3.810e-2
-0.403, 3.813e-2
-0.404, 3.817e-2
-0.405, 3.819e-2
-0.406, 3.823e-2
-0.407, 3.826e-2
-0.408, 3.830e-2
-0.409, 3.833e-2
-0.410, 3.837e-2
-0.411, 3.840e-2
-0.412, 3.843e-2
-0.413, 3.846e-2
-0.414, 3.850e-2
-0.415, 3.853e-2
-0.416, 3.856e-2
-0.417, 3.859e-2
-0.418, 3.863e-2
-0.419, 3.866e-2
-0.420, 3.869e-2
-0.421, 3.872e-2
-0.422, 3.876e-2
-0.423, 3.879e-2
-0.424, 3.883e-2
-0.425, 3.886e-2
-0.426, 3.889e-2
-0.427, 3.892e-2
-0.428, 3.896e-2
-0.429, 3.899e-2
-0.430, 3.903e-2
-0.431, 3.905e-2
-0.432, 3.909e-2
-0.433, 3.912e-2
-0.434, 3.915e-2
-0.435, 3.919e-2
-0.436, 3.922e-2
-0.437, 3.925e-2
-0.438, 3.929e-2
-0.439, 3.932e-2
-0.440, 3.935e-2
-0.441, 3.938e-2
-0.442, 3.942e-2
-0.443, 3.945e-2
-0.444, 3.949e-2
-0.445, 3.952e-2
-0.446, 3.955e-2
-0.447, 3.958e-2
-0.448, 3.962e-2
-0.449, 3.965e-2
-0.450, 3.968e-2
-0.451, 3.971e-2
-0.452, 3.975e-2
-0.453, 3.978e-2
-0.454, 3.982e-2
-0.455, 3.985e-2
-0.456, 3.988e-2
-0.457, 3.991e-2
-0.458, 3.995e-2
-0.459, 3.998e-2
-0.460, 4.002e-2
-0.461, 4.005e-2
-0.462, 4.009e-2
-0.463, 4.012e-2
-0.464, 4.015e-2
-0.465, 4.018e-2
-0.466, 4.022e-2
-0.467, 4.025e-2
-0.468, 4.029e-2
-0.469, 4.032e-2
-0.470, 4.035e-2
-0.471, 4.039e-2
-0.472, 4.042e-2
-0.473, 4.045e-2
-0.474, 4.049e-2
-0.475, 4.052e-2
-0.476, 4.056e-2
-0.477, 4.059e-2
-0.478, 4.062e-2
-0.479, 4.065e-2
-0.480, 4.069e-2
-0.481, 4.072e-2
-0.482, 4.076e-2
-0.483, 4.079e-2
-0.484, 4.082e-2
-0.485, 4.085e-2
-0.486, 4.089e-2
-0.487, 4.092e-2
-0.488, 4.096e-2
-0.489, 4.099e-2
-0.490, 4.102e-2
-0.491, 4.105e-2
-0.492, 4.109e-2
-0.493, 4.112e-2
-0.494, 4.116e-2
-0.495, 4.119e-2
-0.496, 4.123e-2
-0.497, 4.126e-2
-0.498, 4.129e-2
-0.499, 4.132e-2
-0.500, 4.136e-2
-0.501, 4.139e-2
-0.502, 4.143e-2
-0.503, 4.146e-2
-0.504, 4.149e-2
-0.505, 4.152e-2
-0.506, 4.156e-2
-0.507, 4.159e-2
-0.508, 4.163e-2
-0.509, 4.165e-2
-0.510, 4.169e-2
-0.511, 4.172e-2
-0.512, 4.176e-2
-0.513, 4.179e-2
-0.514, 4.183e-2
-0.515, 4.186e-2
-0.516, 4.189e-2
-0.517, 4.192e-2
-0.518, 4.196e-2
-0.519, 4.199e-2
-0.520, 4.203e-2
-0.521, 4.206e-2
-0.522, 4.210e-2
-0.523, 4.213e-2
-0.524, 4.217e-2
-0.525, 4.220e-2
-0.526, 4.224e-2
-0.527, 4.227e-2
-0.528, 4.230e-2
-0.529, 4.233e-2
-0.530, 4.237e-2
-0.531, 4.240e-2
-0.532, 4.244e-2
-0.533, 4.247e-2
-0.534, 4.250e-2
-0.535, 4.253e-2
-0.536, 4.257e-2
-0.537, 4.260e-2
-0.538, 4.264e-2
-0.539, 4.267e-2
-0.540, 4.271e-2
-0.541, 4.274e-2
-0.542, 4.277e-2
-0.543, 4.281e-2
-0.544, 4.284e-2
-0.545, 4.288e-2
-0.546, 4.291e-2
-0.547, 4.294e-2
-0.548, 4.298e-2
-0.549, 4.301e-2
-0.550, 4.305e-2
-0.551, 4.308e-2
-0.552, 4.311e-2
-0.553, 4.315e-2
-0.554, 4.318e-2
-0.555, 4.321e-2
-0.556, 4.325e-2
-0.557, 4.328e-2
-0.558, 4.332e-2
-0.559, 4.335e-2
-0.560, 4.339e-2
-0.561, 4.342e-2
-0.562, 4.346e-2
-0.563, 4.349e-2
-0.564, 4.352e-2
-0.565, 4.355e-2
-0.566, 4.358e-2
-0.567, 4.361e-2
-0.568, 4.364e-2
-0.569, 4.368e-2
-0.570, 4.372e-2
-0.571, 4.375e-2
-0.572, 4.379e-2
-0.573, 4.382e-2
-0.574, 4.386e-2
-0.575, 4.389e-2
-0.576, 4.393e-2
-0.577, 4.396e-2
-0.578, 4.400e-2
-0.579, 4.403e-2
-0.580, 4.407e-2
-0.581, 4.410e-2
-0.582, 4.414e-2
-0.583, 4.417e-2
-0.584, 4.421e-2
-0.585, 4.424e-2
-0.586, 4.427e-2
-0.587, 4.431e-2
-0.588, 4.435e-2
-0.589, 4.438e-2
-0.590, 4.442e-2
-0.591, 4.445e-2
-0.592, 4.449e-2
-0.593, 4.452e-2
-0.594, 4.456e-2
-0.595, 4.460e-2
-0.596, 4.464e-2
-0.597, 4.467e-2
-0.598, 4.471e-2
-0.599, 4.475e-2
-0.600, 4.479e-2
-0.601, 4.482e-2
-0.602, 4.485e-2
-0.603, 4.489e-2
-0.604, 4.493e-2
-0.605, 4.496e-2
-0.606, 4.500e-2
-0.607, 4.503e-2
-0.608, 4.507e-2
-0.609, 4.510e-2
-0.610, 4.514e-2
-0.611, 4.518e-2
-0.612, 4.521e-2
-0.613, 4.524e-2
-0.614, 4.528e-2
-0.615, 4.532e-2
-0.616, 4.536e-2
-0.617, 4.539e-2
-0.618, 4.543e-2
-0.619, 4.546e-2
-0.620, 4.550e-2
-0.621, 4.553e-2
-0.622, 4.557e-2
-0.623, 4.560e-2
-0.624, 4.563e-2
-0.625, 4.566e-2
-0.626, 4.570e-2
-0.627, 4.574e-2
-0.628, 4.577e-2
-0.629, 4.581e-2
-0.630, 4.585e-2
-0.631, 4.589e-2
-0.632, 4.592e-2
-0.633, 4.596e-2
-0.634, 4.600e-2
-0.635, 4.603e-2
-0.636, 4.607e-2
-0.637, 4.610e-2
-0.638, 4.614e-2
-0.639, 4.618e-2
-0.640, 4.622e-2
-0.641, 4.626e-2
-0.642, 4.630e-2
-0.643, 4.634e-2
-0.644, 4.637e-2
-0.645, 4.641e-2
-0.646, 4.645e-2
-0.647, 4.648e-2
-0.648, 4.652e-2
-0.649, 4.655e-2
-0.650, 4.659e-2
-0.651, 4.664e-2
-0.652, 4.668e-2
-0.653, 4.671e-2
-0.654, 4.676e-2
-0.655, 4.679e-2
-0.656, 4.683e-2
-0.657, 4.688e-2
-0.658, 4.692e-2
-0.659, 4.696e-2
-0.660, 4.700e-2
-0.661, 4.703e-2
-0.662, 4.707e-2
-0.663, 4.711e-2
-0.664, 4.715e-2
-0.665, 4.718e-2
-0.666, 4.723e-2
-0.667, 4.727e-2
-0.668, 4.731e-2
-0.669, 4.734e-2
-0.670, 4.739e-2
-0.671, 4.742e-2
-0.672, 4.746e-2
-0.673, 4.750e-2
-0.674, 4.754e-2
-0.675, 4.758e-2
-0.676, 4.761e-2
-0.677, 4.765e-2
-0.678, 4.770e-2
-0.679, 4.773e-2
-0.680, 4.777e-2
-0.681, 4.781e-2
-0.682, 4.785e-2
-0.683, 4.789e-2
-0.684, 4.793e-2
-0.685, 4.797e-2
-0.686, 4.801e-2
-0.687, 4.805e-2
-0.688, 4.809e-2
-0.689, 4.813e-2
-0.690, 4.817e-2
-0.691, 4.820e-2
-0.692, 4.825e-2
-0.693, 4.829e-2
-0.694, 4.833e-2
-0.695, 4.837e-2
-0.696, 4.840e-2
-0.697, 4.844e-2
-0.698, 4.850e-2
-0.699, 4.854e-2
-0.700, 4.858e-2
-0.701, 4.862e-2
-0.702, 4.866e-2
-0.703, 4.869e-2
-0.704, 4.874e-2
-0.705, 4.878e-2
-0.706, 4.882e-2
-0.707, 4.885e-2
-0.708, 4.889e-2
-0.709, 4.893e-2
-0.710, 4.898e-2
-0.711, 4.902e-2
-0.712, 4.905e-2
-0.713, 4.909e-2
-0.714, 4.914e-2
-0.715, 4.918e-2
-0.716, 4.924e-2
-0.717, 4.928e-2
-0.718, 4.932e-2
-0.719, 4.936e-2
-0.720, 4.940e-2
-0.721, 4.946e-2
-0.722, 4.952e-2
-0.723, 4.958e-2
-0.724, 4.963e-2
-0.725, 4.968e-2
-0.726, 4.973e-2
-0.727, 4.978e-2
-0.728, 4.982e-2
-0.729, 4.986e-2
-0.730, 4.990e-2
-0.731, 4.993e-2
-0.732, 4.998e-2
-0.733, 5.002e-2
-0.734, 5.005e-2
-0.735, 5.009e-2
-0.736, 5.014e-2
-0.737, 5.020e-2
-0.738, 5.025e-2
-0.739, 5.029e-2
-0.740, 5.032e-2
-0.741, 5.037e-2
-0.742, 5.041e-2
-0.743, 5.045e-2
-0.744, 5.050e-2
-0.745, 5.054e-2
-0.746, 5.059e-2
-0.747, 5.063e-2
-0.748, 5.068e-2
-0.749, 5.073e-2
-0.750, 5.077e-2
-0.751, 5.081e-2
-0.752, 5.087e-2
-0.753, 5.093e-2
-0.754, 5.097e-2
-0.755, 5.102e-2
-0.756, 5.107e-2
-0.757, 5.110e-2
-0.758, 5.116e-2
-0.759, 5.120e-2
-0.760, 5.125e-2
-0.761, 5.129e-2
-0.762, 5.134e-2
-0.763, 5.140e-2
-0.764, 5.145e-2
-0.765, 5.150e-2
-0.766, 5.156e-2
-0.767, 5.161e-2
-0.768, 5.166e-2
-0.769, 5.172e-2
-0.770, 5.177e-2
-0.771, 5.182e-2
-0.772, 5.188e-2
-0.773, 5.196e-2
-0.774, 5.201e-2
-0.775, 5.206e-2
-0.776, 5.211e-2
-0.777, 5.216e-2
-0.778, 5.222e-2
-0.779, 5.226e-2
-0.780, 5.233e-2
-0.781, 5.239e-2
-0.782, 5.244e-2
-0.783, 5.249e-2
-0.784, 5.254e-2
-0.785, 5.259e-2
-0.786, 5.263e-2
-0.787, 5.269e-2
-0.788, 5.274e-2
-0.789, 5.280e-2
-0.790, 5.287e-2
-0.791, 5.292e-2
-0.792, 5.298e-2
-0.793, 5.304e-2
-0.794, 5.308e-2
-0.795, 5.313e-2
-0.796, 5.321e-2
-0.797, 5.326e-2
-0.798, 5.332e-2
-0.799, 5.339e-2
