Apr. 28, 2026   10:34:05
Cyclic Voltammetry
File: c:\users\administrator\desktop\2026.4.28\0.1v\0.5molh2so4\1.txt
Data Source:  Experiment
Instrument Model:  CHI600E
Header: 
Note: 

Init E (V) = 0
High E (V) = 0.8
Low E (V) = -0.8
Init P/N = N
Scan Rate (V/s) = 0.1
Segment = 3
Sample Interval (V) = 0.001
Quiet Time (sec) = 2
Sensitivity (A/V) = 0.1

Segment 1:

Segment 2:

Segment 3:

Potential/V, Current/A

0.000, 8.043e-3
-0.001, 8.187e-3
-0.002, 8.320e-3
-0.003, 8.449e-3
-0.004, 8.572e-3
-0.005, 8.692e-3
-0.006, 8.808e-3
-0.007, 8.923e-3
-0.008, 9.032e-3
-0.009, 9.140e-3
-0.010, 9.248e-3
-0.011, 9.355e-3
-0.012, 9.459e-3
-0.013, 9.564e-3
-0.014, 9.665e-3
-0.015, 9.768e-3
-0.016, 9.866e-3
-0.017, 9.965e-3
-0.018, 1.006e-2
-0.019, 1.016e-2
-0.020, 1.026e-2
-0.021, 1.035e-2
-0.022, 1.044e-2
-0.023, 1.054e-2
-0.024, 1.063e-2
-0.025, 1.073e-2
-0.026, 1.082e-2
-0.027, 1.091e-2
-0.028, 1.100e-2
-0.029, 1.110e-2
-0.030, 1.119e-2
-0.031, 1.128e-2
-0.032, 1.136e-2
-0.033, 1.145e-2
-0.034, 1.154e-2
-0.035, 1.163e-2
-0.036, 1.172e-2
-0.037, 1.180e-2
-0.038, 1.189e-2
-0.039, 1.198e-2
-0.040, 1.206e-2
-0.041, 1.214e-2
-0.042, 1.222e-2
-0.043, 1.230e-2
-0.044, 1.239e-2
-0.045, 1.247e-2
-0.046, 1.256e-2
-0.047, 1.264e-2
-0.048, 1.273e-2
-0.049, 1.281e-2
-0.050, 1.289e-2
-0.051, 1.297e-2
-0.052, 1.306e-2
-0.053, 1.314e-2
-0.054, 1.322e-2
-0.055, 1.330e-2
-0.056, 1.338e-2
-0.057, 1.346e-2
-0.058, 1.354e-2
-0.059, 1.363e-2
-0.060, 1.370e-2
-0.061, 1.378e-2
-0.062, 1.386e-2
-0.063, 1.394e-2
-0.064, 1.402e-2
-0.065, 1.410e-2
-0.066, 1.418e-2
-0.067, 1.425e-2
-0.068, 1.433e-2
-0.069, 1.441e-2
-0.070, 1.449e-2
-0.071, 1.457e-2
-0.072, 1.464e-2
-0.073, 1.472e-2
-0.074, 1.480e-2
-0.075, 1.488e-2
-0.076, 1.495e-2
-0.077, 1.503e-2
-0.078, 1.510e-2
-0.079, 1.518e-2
-0.080, 1.526e-2
-0.081, 1.534e-2
-0.082, 1.541e-2
-0.083, 1.549e-2
-0.084, 1.556e-2
-0.085, 1.564e-2
-0.086, 1.571e-2
-0.087, 1.579e-2
-0.088, 1.586e-2
-0.089, 1.593e-2
-0.090, 1.601e-2
-0.091, 1.608e-2
-0.092, 1.616e-2
-0.093, 1.623e-2
-0.094, 1.631e-2
-0.095, 1.638e-2
-0.096, 1.646e-2
-0.097, 1.653e-2
-0.098, 1.661e-2
-0.099, 1.668e-2
-0.100, 1.675e-2
-0.101, 1.682e-2
-0.102, 1.690e-2
-0.103, 1.697e-2
-0.104, 1.704e-2
-0.105, 1.711e-2
-0.106, 1.719e-2
-0.107, 1.726e-2
-0.108, 1.733e-2
-0.109, 1.740e-2
-0.110, 1.747e-2
-0.111, 1.754e-2
-0.112, 1.761e-2
-0.113, 1.769e-2
-0.114, 1.776e-2
-0.115, 1.783e-2
-0.116, 1.790e-2
-0.117, 1.797e-2
-0.118, 1.804e-2
-0.119, 1.811e-2
-0.120, 1.818e-2
-0.121, 1.825e-2
-0.122, 1.832e-2
-0.123, 1.839e-2
-0.124, 1.845e-2
-0.125, 1.852e-2
-0.126, 1.859e-2
-0.127, 1.866e-2
-0.128, 1.874e-2
-0.129, 1.880e-2
-0.130, 1.887e-2
-0.131, 1.894e-2
-0.132, 1.901e-2
-0.133, 1.908e-2
-0.134, 1.915e-2
-0.135, 1.922e-2
-0.136, 1.929e-2
-0.137, 1.935e-2
-0.138, 1.942e-2
-0.139, 1.949e-2
-0.140, 1.956e-2
-0.141, 1.963e-2
-0.142, 1.970e-2
-0.143, 1.976e-2
-0.144, 1.983e-2
-0.145, 1.990e-2
-0.146, 1.997e-2
-0.147, 2.004e-2
-0.148, 2.010e-2
-0.149, 2.017e-2
-0.150, 2.024e-2
-0.151, 2.030e-2
-0.152, 2.037e-2
-0.153, 2.044e-2
-0.154, 2.051e-2
-0.155, 2.057e-2
-0.156, 2.064e-2
-0.157, 2.071e-2
-0.158, 2.077e-2
-0.159, 2.084e-2
-0.160, 2.090e-2
-0.161, 2.097e-2
-0.162, 2.103e-2
-0.163, 2.110e-2
-0.164, 2.117e-2
-0.165, 2.123e-2
-0.166, 2.130e-2
-0.167, 2.137e-2
-0.168, 2.143e-2
-0.169, 2.149e-2
-0.170, 2.156e-2
-0.171, 2.162e-2
-0.172, 2.169e-2
-0.173, 2.175e-2
-0.174, 2.182e-2
-0.175, 2.188e-2
-0.176, 2.195e-2
-0.177, 2.201e-2
-0.178, 2.207e-2
-0.179, 2.214e-2
-0.180, 2.220e-2
-0.181, 2.227e-2
-0.182, 2.233e-2
-0.183, 2.240e-2
-0.184, 2.246e-2
-0.185, 2.252e-2
-0.186, 2.259e-2
-0.187, 2.265e-2
-0.188, 2.271e-2
-0.189, 2.277e-2
-0.190, 2.284e-2
-0.191, 2.290e-2
-0.192, 2.297e-2
-0.193, 2.303e-2
-0.194, 2.310e-2
-0.195, 2.316e-2
-0.196, 2.322e-2
-0.197, 2.328e-2
-0.198, 2.335e-2
-0.199, 2.341e-2
-0.200, 2.348e-2
-0.201, 2.354e-2
-0.202, 2.360e-2
-0.203, 2.366e-2
-0.204, 2.372e-2
-0.205, 2.379e-2
-0.206, 2.385e-2
-0.207, 2.391e-2
-0.208, 2.397e-2
-0.209, 2.404e-2
-0.210, 2.410e-2
-0.211, 2.416e-2
-0.212, 2.423e-2
-0.213, 2.429e-2
-0.214, 2.435e-2
-0.215, 2.441e-2
-0.216, 2.447e-2
-0.217, 2.454e-2
-0.218, 2.460e-2
-0.219, 2.466e-2
-0.220, 2.472e-2
-0.221, 2.478e-2
-0.222, 2.484e-2
-0.223, 2.490e-2
-0.224, 2.496e-2
-0.225, 2.503e-2
-0.226, 2.509e-2
-0.227, 2.515e-2
-0.228, 2.521e-2
-0.229, 2.527e-2
-0.230, 2.533e-2
-0.231, 2.539e-2
-0.232, 2.545e-2
-0.233, 2.552e-2
-0.234, 2.558e-2
-0.235, 2.563e-2
-0.236, 2.570e-2
-0.237, 2.576e-2
-0.238, 2.582e-2
-0.239, 2.587e-2
-0.240, 2.593e-2
-0.241, 2.599e-2
-0.242, 2.605e-2
-0.243, 2.611e-2
-0.244, 2.617e-2
-0.245, 2.623e-2
-0.246, 2.629e-2
-0.247, 2.635e-2
-0.248, 2.641e-2
-0.249, 2.647e-2
-0.250, 2.653e-2
-0.251, 2.659e-2
-0.252, 2.665e-2
-0.253, 2.671e-2
-0.254, 2.677e-2
-0.255, 2.682e-2
-0.256, 2.689e-2
-0.257, 2.695e-2
-0.258, 2.701e-2
-0.259, 2.706e-2
-0.260, 2.712e-2
-0.261, 2.718e-2
-0.262, 2.724e-2
-0.263, 2.730e-2
-0.264, 2.736e-2
-0.265, 2.742e-2
-0.266, 2.748e-2
-0.267, 2.753e-2
-0.268, 2.760e-2
-0.269, 2.765e-2
-0.270, 2.771e-2
-0.271, 2.777e-2
-0.272, 2.782e-2
-0.273, 2.788e-2
-0.274, 2.794e-2
-0.275, 2.800e-2
-0.276, 2.806e-2
-0.277, 2.811e-2
-0.278, 2.817e-2
-0.279, 2.823e-2
-0.280, 2.829e-2
-0.281, 2.835e-2
-0.282, 2.841e-2
-0.283, 2.846e-2
-0.284, 2.852e-2
-0.285, 2.857e-2
-0.286, 2.863e-2
-0.287, 2.869e-2
-0.288, 2.875e-2
-0.289, 2.880e-2
-0.290, 2.886e-2
-0.291, 2.892e-2
-0.292, 2.898e-2
-0.293, 2.903e-2
-0.294, 2.910e-2
-0.295, 2.915e-2
-0.296, 2.921e-2
-0.297, 2.927e-2
-0.298, 2.933e-2
-0.299, 2.938e-2
-0.300, 2.944e-2
-0.301, 2.949e-2
-0.302, 2.955e-2
-0.303, 2.961e-2
-0.304, 2.967e-2
-0.305, 2.972e-2
-0.306, 2.978e-2
-0.307, 2.983e-2
-0.308, 2.989e-2
-0.309, 2.994e-2
-0.310, 3.000e-2
-0.311, 3.006e-2
-0.312, 3.011e-2
-0.313, 3.017e-2
-0.314, 3.023e-2
-0.315, 3.028e-2
-0.316, 3.034e-2
-0.317, 3.039e-2
-0.318, 3.045e-2
-0.319, 3.051e-2
-0.320, 3.056e-2
-0.321, 3.062e-2
-0.322, 3.068e-2
-0.323, 3.073e-2
-0.324, 3.079e-2
-0.325, 3.084e-2
-0.326, 3.090e-2
-0.327, 3.096e-2
-0.328, 3.101e-2
-0.329, 3.107e-2
-0.330, 3.112e-2
-0.331, 3.118e-2
-0.332, 3.124e-2
-0.333, 3.129e-2
-0.334, 3.135e-2
-0.335, 3.140e-2
-0.336, 3.146e-2
-0.337, 3.152e-2
-0.338, 3.157e-2
-0.339, 3.163e-2
-0.340, 3.168e-2
-0.341, 3.173e-2
-0.342, 3.179e-2
-0.343, 3.184e-2
-0.344, 3.190e-2
-0.345, 3.196e-2
-0.346, 3.201e-2
-0.347, 3.207e-2
-0.348, 3.212e-2
-0.349, 3.218e-2
-0.350, 3.223e-2
-0.351, 3.229e-2
-0.352, 3.235e-2
-0.353, 3.240e-2
-0.354, 3.245e-2
-0.355, 3.251e-2
-0.356, 3.256e-2
-0.357, 3.261e-2
-0.358, 3.267e-2
-0.359, 3.273e-2
-0.360, 3.278e-2
-0.361, 3.284e-2
-0.362, 3.289e-2
-0.363, 3.294e-2
-0.364, 3.300e-2
-0.365, 3.305e-2
-0.366, 3.311e-2
-0.367, 3.316e-2
-0.368, 3.322e-2
-0.369, 3.327e-2
-0.370, 3.333e-2
-0.371, 3.338e-2
-0.372, 3.344e-2
-0.373, 3.349e-2
-0.374, 3.355e-2
-0.375, 3.360e-2
-0.376, 3.365e-2
-0.377, 3.372e-2
-0.378, 3.378e-2
-0.379, 3.383e-2
-0.380, 3.388e-2
-0.381, 3.393e-2
-0.382, 3.398e-2
-0.383, 3.403e-2
-0.384, 3.409e-2
-0.385, 3.414e-2
-0.386, 3.419e-2
-0.387, 3.425e-2
-0.388, 3.430e-2
-0.389, 3.435e-2
-0.390, 3.441e-2
-0.391, 3.446e-2
-0.392, 3.451e-2
-0.393, 3.457e-2
-0.394, 3.462e-2
-0.395, 3.467e-2
-0.396, 3.473e-2
-0.397, 3.478e-2
-0.398, 3.484e-2
-0.399, 3.489e-2
-0.400, 3.495e-2
-0.401, 3.500e-2
-0.402, 3.505e-2
-0.403, 3.510e-2
-0.404, 3.516e-2
-0.405, 3.521e-2
-0.406, 3.526e-2
-0.407, 3.531e-2
-0.408, 3.537e-2
-0.409, 3.542e-2
-0.410, 3.548e-2
-0.411, 3.553e-2
-0.412, 3.558e-2
-0.413, 3.564e-2
-0.414, 3.569e-2
-0.415, 3.574e-2
-0.416, 3.580e-2
-0.417, 3.585e-2
-0.418, 3.590e-2
-0.419, 3.595e-2
-0.420, 3.601e-2
-0.421, 3.606e-2
-0.422, 3.612e-2
-0.423, 3.616e-2
-0.424, 3.622e-2
-0.425, 3.627e-2
-0.426, 3.633e-2
-0.427, 3.637e-2
-0.428, 3.643e-2
-0.429, 3.648e-2
-0.430, 3.654e-2
-0.431, 3.659e-2
-0.432, 3.664e-2
-0.433, 3.669e-2
-0.434, 3.675e-2
-0.435, 3.679e-2
-0.436, 3.685e-2
-0.437, 3.690e-2
-0.438, 3.695e-2
-0.439, 3.700e-2
-0.440, 3.706e-2
-0.441, 3.711e-2
-0.442, 3.716e-2
-0.443, 3.721e-2
-0.444, 3.726e-2
-0.445, 3.731e-2
-0.446, 3.737e-2
-0.447, 3.741e-2
-0.448, 3.747e-2
-0.449, 3.752e-2
-0.450, 3.757e-2
-0.451, 3.762e-2
-0.452, 3.768e-2
-0.453, 3.772e-2
-0.454, 3.778e-2
-0.455, 3.782e-2
-0.456, 3.788e-2
-0.457, 3.793e-2
-0.458, 3.798e-2
-0.459, 3.803e-2
-0.460, 3.809e-2
-0.461, 3.814e-2
-0.462, 3.819e-2
-0.463, 3.824e-2
-0.464, 3.829e-2
-0.465, 3.834e-2
-0.466, 3.840e-2
-0.467, 3.845e-2
-0.468, 3.850e-2
-0.469, 3.855e-2
-0.470, 3.860e-2
-0.471, 3.865e-2
-0.472, 3.870e-2
-0.473, 3.875e-2
-0.474, 3.881e-2
-0.475, 3.886e-2
-0.476, 3.891e-2
-0.477, 3.895e-2
-0.478, 3.901e-2
-0.479, 3.906e-2
-0.480, 3.911e-2
-0.481, 3.916e-2
-0.482, 3.921e-2
-0.483, 3.926e-2
-0.484, 3.931e-2
-0.485, 3.936e-2
-0.486, 3.941e-2
-0.487, 3.946e-2
-0.488, 3.952e-2
-0.489, 3.956e-2
-0.490, 3.962e-2
-0.491, 3.967e-2
-0.492, 3.972e-2
-0.493, 3.977e-2
-0.494, 3.982e-2
-0.495, 3.987e-2
-0.496, 3.992e-2
-0.497, 3.997e-2
-0.498, 4.003e-2
-0.499, 4.007e-2
-0.500, 4.013e-2
-0.501, 4.017e-2
-0.502, 4.023e-2
-0.503, 4.028e-2
-0.504, 4.033e-2
-0.505, 4.038e-2
-0.506, 4.043e-2
-0.507, 4.048e-2
-0.508, 4.053e-2
-0.509, 4.058e-2
-0.510, 4.063e-2
-0.511, 4.068e-2
-0.512, 4.073e-2
-0.513, 4.078e-2
-0.514, 4.084e-2
-0.515, 4.088e-2
-0.516, 4.093e-2
-0.517, 4.098e-2
-0.518, 4.103e-2
-0.519, 4.108e-2
-0.520, 4.114e-2
-0.521, 4.118e-2
-0.522, 4.124e-2
-0.523, 4.128e-2
-0.524, 4.135e-2
-0.525, 4.140e-2
-0.526, 4.145e-2
-0.527, 4.149e-2
-0.528, 4.154e-2
-0.529, 4.159e-2
-0.530, 4.164e-2
-0.531, 4.169e-2
-0.532, 4.174e-2
-0.533, 4.179e-2
-0.534, 4.183e-2
-0.535, 4.188e-2
-0.536, 4.193e-2
-0.537, 4.198e-2
-0.538, 4.203e-2
-0.539, 4.208e-2
-0.540, 4.213e-2
-0.541, 4.218e-2
-0.542, 4.223e-2
-0.543, 4.228e-2
-0.544, 4.233e-2
-0.545, 4.238e-2
-0.546, 4.243e-2
-0.547, 4.248e-2
-0.548, 4.253e-2
-0.549, 4.258e-2
-0.550, 4.263e-2
-0.551, 4.267e-2
-0.552, 4.273e-2
-0.553, 4.278e-2
-0.554, 4.283e-2
-0.555, 4.287e-2
-0.556, 4.292e-2
-0.557, 4.297e-2
-0.558, 4.302e-2
-0.559, 4.307e-2
-0.560, 4.312e-2
-0.561, 4.317e-2
-0.562, 4.322e-2
-0.563, 4.326e-2
-0.564, 4.332e-2
-0.565, 4.336e-2
-0.566, 4.341e-2
-0.567, 4.346e-2
-0.568, 4.351e-2
-0.569, 4.355e-2
-0.570, 4.360e-2
-0.571, 4.364e-2
-0.572, 4.369e-2
-0.573, 4.374e-2
-0.574, 4.379e-2
-0.575, 4.383e-2
-0.576, 4.389e-2
-0.577, 4.393e-2
-0.578, 4.398e-2
-0.579, 4.403e-2
-0.580, 4.408e-2
-0.581, 4.413e-2
-0.582, 4.418e-2
-0.583, 4.423e-2
-0.584, 4.428e-2
-0.585, 4.432e-2
-0.586, 4.437e-2
-0.587, 4.442e-2
-0.588, 4.447e-2
-0.589, 4.451e-2
-0.590, 4.456e-2
-0.591, 4.461e-2
-0.592, 4.466e-2
-0.593, 4.471e-2
-0.594, 4.476e-2
-0.595, 4.481e-2
-0.596, 4.486e-2
-0.597, 4.491e-2
-0.598, 4.496e-2
-0.599, 4.500e-2
-0.600, 4.506e-2
-0.601, 4.510e-2
-0.602, 4.515e-2
-0.603, 4.520e-2
-0.604, 4.525e-2
-0.605, 4.530e-2
-0.606, 4.535e-2
-0.607, 4.540e-2
-0.608, 4.544e-2
-0.609, 4.549e-2
-0.610, 4.554e-2
-0.611, 4.558e-2
-0.612, 4.563e-2
-0.613, 4.568e-2
-0.614, 4.573e-2
-0.615, 4.577e-2
-0.616, 4.582e-2
-0.617, 4.587e-2
-0.618, 4.592e-2
-0.619, 4.597e-2
-0.620, 4.602e-2
-0.621, 4.607e-2
-0.622, 4.612e-2
-0.623, 4.616e-2
-0.624, 4.621e-2
-0.625, 4.626e-2
-0.626, 4.631e-2
-0.627, 4.635e-2
-0.628, 4.641e-2
-0.629, 4.645e-2
-0.630, 4.650e-2
-0.631, 4.654e-2
-0.632, 4.659e-2
-0.633, 4.664e-2
-0.634, 4.669e-2
-0.635, 4.673e-2
-0.636, 4.678e-2
-0.637, 4.683e-2
-0.638, 4.689e-2
-0.639, 4.693e-2
-0.640, 4.698e-2
-0.641, 4.702e-2
-0.642, 4.707e-2
-0.643, 4.712e-2
-0.644, 4.717e-2
-0.645, 4.721e-2
-0.646, 4.726e-2
-0.647, 4.731e-2
-0.648, 4.736e-2
-0.649, 4.740e-2
-0.650, 4.745e-2
-0.651, 4.750e-2
-0.652, 4.755e-2
-0.653, 4.759e-2
-0.654, 4.765e-2
-0.655, 4.769e-2
-0.656, 4.774e-2
-0.657, 4.778e-2
-0.658, 4.782e-2
-0.659, 4.787e-2
-0.660, 4.792e-2
-0.661, 4.796e-2
-0.662, 4.802e-2
-0.663, 4.806e-2
-0.664, 4.811e-2
-0.665, 4.815e-2
-0.666, 4.821e-2
-0.667, 4.825e-2
-0.668, 4.830e-2
-0.669, 4.834e-2
-0.670, 4.839e-2
-0.671, 4.844e-2
-0.672, 4.849e-2
-0.673, 4.853e-2
-0.674, 4.859e-2
-0.675, 4.863e-2
-0.676, 4.868e-2
-0.677, 4.873e-2
-0.678, 4.878e-2
-0.679, 4.882e-2
-0.680, 4.887e-2
-0.681, 4.891e-2
-0.682, 4.896e-2
-0.683, 4.901e-2
-0.684, 4.905e-2
-0.685, 4.910e-2
-0.686, 4.915e-2
-0.687, 4.920e-2
-0.688, 4.925e-2
-0.689, 4.929e-2
-0.690, 4.934e-2
-0.691, 4.938e-2
-0.692, 4.943e-2
-0.693, 4.948e-2
-0.694, 4.952e-2
-0.695, 4.957e-2
-0.696, 4.961e-2
-0.697, 4.965e-2
-0.698, 4.970e-2
-0.699, 4.975e-2
-0.700, 4.979e-2
-0.701, 4.984e-2
-0.702, 4.989e-2
-0.703, 4.993e-2
-0.704, 4.998e-2
-0.705, 5.003e-2
-0.706, 5.008e-2
-0.707, 5.012e-2
-0.708, 5.017e-2
-0.709, 5.021e-2
-0.710, 5.026e-2
-0.711, 5.030e-2
-0.712, 5.035e-2
-0.713, 5.040e-2
-0.714, 5.045e-2
-0.715, 5.049e-2
-0.716, 5.054e-2
-0.717, 5.059e-2
-0.718, 5.064e-2
-0.719, 5.069e-2
-0.720, 5.074e-2
-0.721, 5.078e-2
-0.722, 5.082e-2
-0.723, 5.086e-2
-0.724, 5.091e-2
-0.725, 5.095e-2
-0.726, 5.101e-2
-0.727, 5.105e-2
-0.728, 5.109e-2
-0.729, 5.114e-2
-0.730, 5.120e-2
-0.731, 5.124e-2
-0.732, 5.129e-2
-0.733, 5.133e-2
-0.734, 5.138e-2
-0.735, 5.143e-2
-0.736, 5.148e-2
-0.737, 5.153e-2
-0.738, 5.157e-2
-0.739, 5.161e-2
-0.740, 5.166e-2
-0.741, 5.171e-2
-0.742, 5.176e-2
-0.743, 5.180e-2
-0.744, 5.185e-2
-0.745, 5.190e-2
-0.746, 5.195e-2
-0.747, 5.200e-2
-0.748, 5.205e-2
-0.749, 5.209e-2
-0.750, 5.214e-2
-0.751, 5.218e-2
-0.752, 5.224e-2
-0.753, 5.228e-2
-0.754, 5.233e-2
-0.755, 5.237e-2
-0.756, 5.242e-2
-0.757, 5.247e-2
-0.758, 5.252e-2
-0.759, 5.256e-2
-0.760, 5.262e-2
-0.761, 5.266e-2
-0.762, 5.271e-2
-0.763, 5.275e-2
-0.764, 5.280e-2
-0.765, 5.284e-2
-0.766, 5.289e-2
-0.767, 5.294e-2
-0.768, 5.299e-2
-0.769, 5.303e-2
-0.770, 5.309e-2
-0.771, 5.313e-2
-0.772, 5.317e-2
-0.773, 5.322e-2
-0.774, 5.327e-2
-0.775, 5.331e-2
-0.776, 5.336e-2
-0.777, 5.340e-2
-0.778, 5.345e-2
-0.779, 5.349e-2
-0.780, 5.355e-2
-0.781, 5.359e-2
-0.782, 5.364e-2
-0.783, 5.371e-2
-0.784, 5.377e-2
-0.785, 5.384e-2
-0.786, 5.389e-2
-0.787, 5.394e-2
-0.788, 5.399e-2
-0.789, 5.404e-2
-0.790, 5.411e-2
-0.791, 5.415e-2
-0.792, 5.420e-2
-0.793, 5.424e-2
-0.794, 5.429e-2
-0.795, 5.433e-2
-0.796, 5.438e-2
-0.797, 5.442e-2
-0.798, 5.448e-2
-0.799, 5.453e-2
-0.800, 5.447e-2
-0.799, 5.420e-2
-0.798, 5.395e-2
-0.797, 5.371e-2
-0.796, 5.349e-2
-0.795, 5.327e-2
-0.794, 5.306e-2
-0.793, 5.285e-2
-0.792, 5.265e-2
-0.791, 5.244e-2
-0.790, 5.225e-2
-0.789, 5.205e-2
-0.788, 5.187e-2
-0.787, 5.167e-2
-0.786, 5.149e-2
-0.785, 5.130e-2
-0.784, 5.112e-2
-0.783, 5.094e-2
-0.782, 5.077e-2
-0.781, 5.059e-2
-0.780, 5.043e-2
-0.779, 5.025e-2
-0.778, 5.008e-2
-0.777, 4.991e-2
-0.776, 4.975e-2
-0.775, 4.959e-2
-0.774, 4.943e-2
-0.773, 4.927e-2
-0.772, 4.911e-2
-0.771, 4.895e-2
-0.770, 4.879e-2
-0.769, 4.863e-2
-0.768, 4.848e-2
-0.767, 4.832e-2
-0.766, 4.817e-2
-0.765, 4.802e-2
-0.764, 4.787e-2
-0.763, 4.772e-2
-0.762, 4.757e-2
-0.761, 4.742e-2
-0.760, 4.728e-2
-0.759, 4.713e-2
-0.758, 4.699e-2
-0.757, 4.684e-2
-0.756, 4.670e-2
-0.755, 4.655e-2
-0.754, 4.641e-2
-0.753, 4.627e-2
-0.752, 4.613e-2
-0.751, 4.599e-2
-0.750, 4.585e-2
-0.749, 4.571e-2
-0.748, 4.558e-2
-0.747, 4.545e-2
-0.746, 4.531e-2
-0.745, 4.518e-2
-0.744, 4.505e-2
-0.743, 4.491e-2
-0.742, 4.477e-2
-0.741, 4.464e-2
-0.740, 4.450e-2
-0.739, 4.437e-2
-0.738, 4.424e-2
-0.737, 4.411e-2
-0.736, 4.398e-2
-0.735, 4.385e-2
-0.734, 4.373e-2
-0.733, 4.359e-2
-0.732, 4.348e-2
-0.731, 4.336e-2
-0.730, 4.323e-2
-0.729, 4.310e-2
-0.728, 4.298e-2
-0.727, 4.285e-2
-0.726, 4.273e-2
-0.725, 4.260e-2
-0.724, 4.247e-2
-0.723, 4.234e-2
-0.722, 4.223e-2
-0.721, 4.209e-2
-0.720, 4.198e-2
-0.719, 4.185e-2
-0.718, 4.175e-2
-0.717, 4.164e-2
-0.716, 4.152e-2
-0.715, 4.140e-2
-0.714, 4.128e-2
-0.713, 4.115e-2
-0.712, 4.104e-2
-0.711, 4.092e-2
-0.710, 4.081e-2
-0.709, 4.068e-2
-0.708, 4.057e-2
-0.707, 4.045e-2
-0.706, 4.034e-2
-0.705, 4.021e-2
-0.704, 4.010e-2
-0.703, 3.998e-2
-0.702, 3.987e-2
-0.701, 3.974e-2
-0.700, 3.963e-2
-0.699, 3.951e-2
-0.698, 3.940e-2
-0.697, 3.929e-2
-0.696, 3.918e-2
-0.695, 3.906e-2
-0.694, 3.895e-2
-0.693, 3.884e-2
-0.692, 3.873e-2
-0.691, 3.861e-2
-0.690, 3.850e-2
-0.689, 3.839e-2
-0.688, 3.828e-2
-0.687, 3.817e-2
-0.686, 3.806e-2
-0.685, 3.794e-2
-0.684, 3.784e-2
-0.683, 3.772e-2
-0.682, 3.762e-2
-0.681, 3.750e-2
-0.680, 3.740e-2
-0.679, 3.728e-2
-0.678, 3.718e-2
-0.677, 3.707e-2
-0.676, 3.696e-2
-0.675, 3.685e-2
-0.674, 3.674e-2
-0.673, 3.663e-2
-0.672, 3.652e-2
-0.671, 3.641e-2
-0.670, 3.630e-2
-0.669, 3.620e-2
-0.668, 3.610e-2
-0.667, 3.599e-2
-0.666, 3.588e-2
-0.665, 3.578e-2
-0.664, 3.567e-2
-0.663, 3.556e-2
-0.662, 3.546e-2
-0.661, 3.535e-2
-0.660, 3.524e-2
-0.659, 3.513e-2
-0.658, 3.503e-2
-0.657, 3.493e-2
-0.656, 3.483e-2
-0.655, 3.472e-2
-0.654, 3.462e-2
-0.653, 3.451e-2
-0.652, 3.441e-2
-0.651, 3.431e-2
-0.650, 3.421e-2
-0.649, 3.410e-2
-0.648, 3.400e-2
-0.647, 3.390e-2
-0.646, 3.380e-2
-0.645, 3.370e-2
-0.644, 3.361e-2
-0.643, 3.350e-2
-0.642, 3.340e-2
-0.641, 3.330e-2
-0.640, 3.320e-2
-0.639, 3.310e-2
-0.638, 3.300e-2
-0.637, 3.289e-2
-0.636, 3.280e-2
-0.635, 3.270e-2
-0.634, 3.260e-2
-0.633, 3.250e-2
-0.632, 3.240e-2
-0.631, 3.230e-2
-0.630, 3.220e-2
-0.629, 3.210e-2
-0.628, 3.200e-2
-0.627, 3.191e-2
-0.626, 3.181e-2
-0.625, 3.171e-2
-0.624, 3.162e-2
-0.623, 3.152e-2
-0.622, 3.142e-2
-0.621, 3.132e-2
-0.620, 3.122e-2
-0.619, 3.113e-2
-0.618, 3.103e-2
-0.617, 3.093e-2
-0.616, 3.084e-2
-0.615, 3.074e-2
-0.614, 3.065e-2
-0.613, 3.055e-2
-0.612, 3.046e-2
-0.611, 3.036e-2
-0.610, 3.027e-2
-0.609, 3.017e-2
-0.608, 3.008e-2
-0.607, 2.999e-2
-0.606, 2.990e-2
-0.605, 2.981e-2
-0.604, 2.972e-2
-0.603, 2.963e-2
-0.602, 2.954e-2
-0.601, 2.944e-2
-0.600, 2.935e-2
-0.599, 2.925e-2
-0.598, 2.916e-2
-0.597, 2.907e-2
-0.596, 2.898e-2
-0.595, 2.888e-2
-0.594, 2.879e-2
-0.593, 2.870e-2
-0.592, 2.861e-2
-0.591, 2.852e-2
-0.590, 2.843e-2
-0.589, 2.833e-2
-0.588, 2.825e-2
-0.587, 2.815e-2
-0.586, 2.806e-2
-0.585, 2.797e-2
-0.584, 2.788e-2
-0.583, 2.779e-2
-0.582, 2.771e-2
-0.581, 2.762e-2
-0.580, 2.753e-2
-0.579, 2.743e-2
-0.578, 2.735e-2
-0.577, 2.725e-2
-0.576, 2.717e-2
-0.575, 2.707e-2
-0.574, 2.699e-2
-0.573, 2.690e-2
-0.572, 2.681e-2
-0.571, 2.672e-2
-0.570, 2.664e-2
-0.569, 2.655e-2
-0.568, 2.647e-2
-0.567, 2.638e-2
-0.566, 2.629e-2
-0.565, 2.620e-2
-0.564, 2.612e-2
-0.563, 2.603e-2
-0.562, 2.594e-2
-0.561, 2.585e-2
-0.560, 2.577e-2
-0.559, 2.568e-2
-0.558, 2.560e-2
-0.557, 2.551e-2
-0.556, 2.542e-2
-0.555, 2.533e-2
-0.554, 2.525e-2
-0.553, 2.516e-2
-0.552, 2.508e-2
-0.551, 2.499e-2
-0.550, 2.491e-2
-0.549, 2.482e-2
-0.548, 2.474e-2
-0.547, 2.465e-2
-0.546, 2.457e-2
-0.545, 2.448e-2
-0.544, 2.439e-2
-0.543, 2.431e-2
-0.542, 2.422e-2
-0.541, 2.413e-2
-0.540, 2.405e-2
-0.539, 2.396e-2
-0.538, 2.388e-2
-0.537, 2.379e-2
-0.536, 2.371e-2
-0.535, 2.362e-2
-0.534, 2.355e-2
-0.533, 2.346e-2
-0.532, 2.338e-2
-0.531, 2.329e-2
-0.530, 2.321e-2
-0.529, 2.312e-2
-0.528, 2.304e-2
-0.527, 2.295e-2
-0.526, 2.288e-2
-0.525, 2.279e-2
-0.524, 2.271e-2
-0.523, 2.263e-2
-0.522, 2.255e-2
-0.521, 2.246e-2
-0.520, 2.238e-2
-0.519, 2.230e-2
-0.518, 2.222e-2
-0.517, 2.213e-2
-0.516, 2.205e-2
-0.515, 2.197e-2
-0.514, 2.189e-2
-0.513, 2.181e-2
-0.512, 2.173e-2
-0.511, 2.164e-2
-0.510, 2.156e-2
-0.509, 2.148e-2
-0.508, 2.140e-2
-0.507, 2.132e-2
-0.506, 2.124e-2
-0.505, 2.116e-2
-0.504, 2.108e-2
-0.503, 2.100e-2
-0.502, 2.092e-2
-0.501, 2.084e-2
-0.500, 2.076e-2
-0.499, 2.068e-2
-0.498, 2.060e-2
-0.497, 2.052e-2
-0.496, 2.044e-2
-0.495, 2.036e-2
-0.494, 2.028e-2
-0.493, 2.020e-2
-0.492, 2.012e-2
-0.491, 2.004e-2
-0.490, 1.996e-2
-0.489, 1.988e-2
-0.488, 1.980e-2
-0.487, 1.972e-2
-0.486, 1.965e-2
-0.485, 1.956e-2
-0.484, 1.949e-2
-0.483, 1.941e-2
-0.482, 1.933e-2
-0.481, 1.925e-2
-0.480, 1.918e-2
-0.479, 1.910e-2
-0.478, 1.902e-2
-0.477, 1.894e-2
-0.476, 1.887e-2
-0.475, 1.879e-2
-0.474, 1.871e-2
-0.473, 1.863e-2
-0.472, 1.856e-2
-0.471, 1.848e-2
-0.470, 1.840e-2
-0.469, 1.832e-2
-0.468, 1.825e-2
-0.467, 1.817e-2
-0.466, 1.810e-2
-0.465, 1.802e-2
-0.464, 1.795e-2
-0.463, 1.787e-2
-0.462, 1.779e-2
-0.461, 1.771e-2
-0.460, 1.764e-2
-0.459, 1.756e-2
-0.458, 1.749e-2
-0.457, 1.741e-2
-0.456, 1.734e-2
-0.455, 1.726e-2
-0.454, 1.718e-2
-0.453, 1.711e-2
-0.452, 1.703e-2
-0.451, 1.696e-2
-0.450, 1.688e-2
-0.449, 1.680e-2
-0.448, 1.673e-2
-0.447, 1.666e-2
-0.446, 1.658e-2
-0.445, 1.651e-2
-0.444, 1.643e-2
-0.443, 1.635e-2
-0.442, 1.628e-2
-0.441, 1.620e-2
-0.440, 1.613e-2
-0.439, 1.605e-2
-0.438, 1.598e-2
-0.437, 1.590e-2
-0.436, 1.583e-2
-0.435, 1.576e-2
-0.434, 1.568e-2
-0.433, 1.561e-2
-0.432, 1.554e-2
-0.431, 1.546e-2
-0.430, 1.539e-2
-0.429, 1.531e-2
-0.428, 1.524e-2
-0.427, 1.516e-2
-0.426, 1.509e-2
-0.425, 1.502e-2
-0.424, 1.495e-2
-0.423, 1.487e-2
-0.422, 1.480e-2
-0.421, 1.473e-2
-0.420, 1.466e-2
-0.419, 1.458e-2
-0.418, 1.451e-2
-0.417, 1.444e-2
-0.416, 1.436e-2
-0.415, 1.429e-2
-0.414, 1.422e-2
-0.413, 1.415e-2
-0.412, 1.408e-2
-0.411, 1.401e-2
-0.410, 1.394e-2
-0.409, 1.386e-2
-0.408, 1.379e-2
-0.407, 1.371e-2
-0.406, 1.365e-2
-0.405, 1.357e-2
-0.404, 1.350e-2
-0.403, 1.343e-2
-0.402, 1.336e-2
-0.401, 1.329e-2
-0.400, 1.322e-2
-0.399, 1.314e-2
-0.398, 1.307e-2
-0.397, 1.300e-2
-0.396, 1.293e-2
-0.395, 1.286e-2
-0.394, 1.279e-2
-0.393, 1.272e-2
-0.392, 1.265e-2
-0.391, 1.258e-2
-0.390, 1.251e-2
-0.389, 1.244e-2
-0.388, 1.237e-2
-0.387, 1.230e-2
-0.386, 1.223e-2
-0.385, 1.216e-2
-0.384, 1.210e-2
-0.383, 1.204e-2
-0.382, 1.197e-2
-0.381, 1.190e-2
-0.380, 1.183e-2
-0.379, 1.176e-2
-0.378, 1.169e-2
-0.377, 1.162e-2
-0.376, 1.155e-2
-0.375, 1.148e-2
-0.374, 1.141e-2
-0.373, 1.134e-2
-0.372, 1.128e-2
-0.371, 1.121e-2
-0.370, 1.114e-2
-0.369, 1.107e-2
-0.368, 1.100e-2
-0.367, 1.093e-2
-0.366, 1.086e-2
-0.365, 1.079e-2
-0.364, 1.073e-2
-0.363, 1.065e-2
-0.362, 1.059e-2
-0.361, 1.052e-2
-0.360, 1.045e-2
-0.359, 1.038e-2
-0.358, 1.032e-2
-0.357, 1.025e-2
-0.356, 1.018e-2
-0.355, 1.011e-2
-0.354, 1.005e-2
-0.353, 9.979e-3
-0.352, 9.913e-3
-0.351, 9.845e-3
-0.350, 9.778e-3
-0.349, 9.709e-3
-0.348, 9.645e-3
-0.347, 9.576e-3
-0.346, 9.509e-3
-0.345, 9.438e-3
-0.344, 9.374e-3
-0.343, 9.304e-3
-0.342, 9.241e-3
-0.341, 9.170e-3
-0.340, 9.106e-3
-0.339, 9.038e-3
-0.338, 8.972e-3
-0.337, 8.903e-3
-0.336, 8.841e-3
-0.335, 8.770e-3
-0.334, 8.704e-3
-0.333, 8.636e-3
-0.332, 8.571e-3
-0.331, 8.503e-3
-0.330, 8.438e-3
-0.329, 8.369e-3
-0.328, 8.305e-3
-0.327, 8.234e-3
-0.326, 8.170e-3
-0.325, 8.102e-3
-0.324, 8.040e-3
-0.323, 7.970e-3
-0.322, 7.906e-3
-0.321, 7.840e-3
-0.320, 7.776e-3
-0.319, 7.709e-3
-0.318, 7.645e-3
-0.317, 7.577e-3
-0.316, 7.514e-3
-0.315, 7.447e-3
-0.314, 7.383e-3
-0.313, 7.316e-3
-0.312, 7.251e-3
-0.311, 7.184e-3
-0.310, 7.122e-3
-0.309, 7.055e-3
-0.308, 6.991e-3
-0.307, 6.926e-3
-0.306, 6.863e-3
-0.305, 6.795e-3
-0.304, 6.733e-3
-0.303, 6.666e-3
-0.302, 6.604e-3
-0.301, 6.536e-3
-0.300, 6.474e-3
-0.299, 6.409e-3
-0.298, 6.346e-3
-0.297, 6.282e-3
-0.296, 6.221e-3
-0.295, 6.155e-3
-0.294, 6.092e-3
-0.293, 6.025e-3
-0.292, 5.964e-3
-0.291, 5.900e-3
-0.290, 5.837e-3
-0.289, 5.770e-3
-0.288, 5.709e-3
-0.287, 5.646e-3
-0.286, 5.583e-3
-0.285, 5.517e-3
-0.284, 5.456e-3
-0.283, 5.391e-3
-0.282, 5.327e-3
-0.281, 5.261e-3
-0.280, 5.202e-3
-0.279, 5.136e-3
-0.278, 5.075e-3
-0.277, 5.010e-3
-0.276, 4.949e-3
-0.275, 4.883e-3
-0.274, 4.822e-3
-0.273, 4.757e-3
-0.272, 4.698e-3
-0.271, 4.633e-3
-0.270, 4.570e-3
-0.269, 4.504e-3
-0.268, 4.443e-3
-0.267, 4.380e-3
-0.266, 4.320e-3
-0.265, 4.255e-3
-0.264, 4.191e-3
-0.263, 4.127e-3
-0.262, 4.066e-3
-0.261, 4.002e-3
-0.260, 3.942e-3
-0.259, 3.877e-3
-0.258, 3.815e-3
-0.257, 3.752e-3
-0.256, 3.691e-3
-0.255, 3.626e-3
-0.254, 3.567e-3
-0.253, 3.506e-3
-0.252, 3.445e-3
-0.251, 3.380e-3
-0.250, 3.319e-3
-0.249, 3.255e-3
-0.248, 3.196e-3
-0.247, 3.132e-3
-0.246, 3.073e-3
-0.245, 3.010e-3
-0.244, 2.950e-3
-0.243, 2.886e-3
-0.242, 2.826e-3
-0.241, 2.764e-3
-0.240, 2.705e-3
-0.239, 2.641e-3
-0.238, 2.583e-3
-0.237, 2.520e-3
-0.236, 2.461e-3
-0.235, 2.398e-3
-0.234, 2.341e-3
-0.233, 2.280e-3
-0.232, 2.223e-3
-0.231, 2.159e-3
-0.230, 2.101e-3
-0.229, 2.041e-3
-0.228, 1.983e-3
-0.227, 1.918e-3
-0.226, 1.860e-3
-0.225, 1.798e-3
-0.224, 1.739e-3
-0.223, 1.675e-3
-0.222, 1.617e-3
-0.221, 1.555e-3
-0.220, 1.496e-3
-0.219, 1.433e-3
-0.218, 1.376e-3
-0.217, 1.313e-3
-0.216, 1.257e-3
-0.215, 1.194e-3
-0.214, 1.135e-3
-0.213, 1.073e-3
-0.212, 1.015e-3
-0.211, 9.532e-4
-0.210, 8.945e-4
-0.209, 8.338e-4
-0.208, 7.746e-4
-0.207, 7.121e-4
-0.206, 6.529e-4
-0.205, 5.897e-4
-0.204, 5.315e-4
-0.203, 4.714e-4
-0.202, 4.129e-4
-0.201, 3.480e-4
-0.200, 2.908e-4
-0.199, 2.295e-4
-0.198, 1.702e-4
-0.197, 1.117e-4
-0.196, 5.596e-5
-0.195, -6.480e-6
-0.194, -6.529e-5
-0.193, -1.260e-4
-0.192, -1.845e-4
-0.191, -2.431e-4
-0.190, -3.012e-4
-0.189, -3.603e-4
-0.188, -4.177e-4
-0.187, -4.784e-4
-0.186, -5.373e-4
-0.185, -5.978e-4
-0.184, -6.551e-4
-0.183, -7.153e-4
-0.182, -7.719e-4
-0.181, -8.315e-4
-0.180, -8.901e-4
-0.179, -9.484e-4
-0.178, -1.005e-3
-0.177, -1.067e-3
-0.176, -1.123e-3
-0.175, -1.183e-3
-0.174, -1.240e-3
-0.173, -1.300e-3
-0.172, -1.358e-3
-0.171, -1.418e-3
-0.170, -1.473e-3
-0.169, -1.531e-3
-0.168, -1.584e-3
-0.167, -1.644e-3
-0.166, -1.700e-3
-0.165, -1.759e-3
-0.164, -1.815e-3
-0.163, -1.874e-3
-0.162, -1.931e-3
-0.161, -1.990e-3
-0.160, -2.045e-3
-0.159, -2.106e-3
-0.158, -2.161e-3
-0.157, -2.221e-3
-0.156, -2.277e-3
-0.155, -2.337e-3
-0.154, -2.394e-3
-0.153, -2.454e-3
-0.152, -2.508e-3
-0.151, -2.568e-3
-0.150, -2.623e-3
-0.149, -2.683e-3
-0.148, -2.739e-3
-0.147, -2.798e-3
-0.146, -2.854e-3
-0.145, -2.910e-3
-0.144, -2.964e-3
-0.143, -3.022e-3
-0.142, -3.080e-3
-0.141, -3.138e-3
-0.140, -3.192e-3
-0.139, -3.251e-3
-0.138, -3.307e-3
-0.137, -3.367e-3
-0.136, -3.421e-3
-0.135, -3.479e-3
-0.134, -3.536e-3
-0.133, -3.593e-3
-0.132, -3.647e-3
-0.131, -3.702e-3
-0.130, -3.757e-3
-0.129, -3.814e-3
-0.128, -3.870e-3
-0.127, -3.929e-3
-0.126, -3.985e-3
-0.125, -4.043e-3
-0.124, -4.097e-3
-0.123, -4.155e-3
-0.122, -4.209e-3
-0.121, -4.269e-3
-0.120, -4.324e-3
-0.119, -4.380e-3
-0.118, -4.433e-3
-0.117, -4.491e-3
-0.116, -4.544e-3
-0.115, -4.602e-3
-0.114, -4.658e-3
-0.113, -4.715e-3
-0.112, -4.768e-3
-0.111, -4.827e-3
-0.110, -4.880e-3
-0.109, -4.936e-3
-0.108, -4.992e-3
-0.107, -5.051e-3
-0.106, -5.105e-3
-0.105, -5.161e-3
-0.104, -5.216e-3
-0.103, -5.275e-3
-0.102, -5.331e-3
-0.101, -5.386e-3
-0.100, -5.438e-3
-0.099, -5.495e-3
-0.098, -5.547e-3
-0.097, -5.605e-3
-0.096, -5.658e-3
-0.095, -5.714e-3
-0.094, -5.769e-3
-0.093, -5.825e-3
-0.092, -5.879e-3
-0.091, -5.935e-3
-0.090, -5.990e-3
-0.089, -6.047e-3
-0.088, -6.100e-3
-0.087, -6.157e-3
-0.086, -6.210e-3
-0.085, -6.267e-3
-0.084, -6.322e-3
-0.083, -6.377e-3
-0.082, -6.431e-3
-0.081, -6.490e-3
-0.080, -6.544e-3
-0.079, -6.597e-3
-0.078, -6.650e-3
-0.077, -6.707e-3
-0.076, -6.762e-3
-0.075, -6.817e-3
-0.074, -6.870e-3
-0.073, -6.926e-3
-0.072, -6.982e-3
-0.071, -7.037e-3
-0.070, -7.089e-3
-0.069, -7.146e-3
-0.068, -7.200e-3
-0.067, -7.257e-3
-0.066, -7.310e-3
-0.065, -7.367e-3
-0.064, -7.421e-3
-0.063, -7.478e-3
-0.062, -7.531e-3
-0.061, -7.587e-3
-0.060, -7.639e-3
-0.059, -7.694e-3
-0.058, -7.750e-3
-0.057, -7.806e-3
-0.056, -7.857e-3
-0.055, -7.911e-3
-0.054, -7.964e-3
-0.053, -8.020e-3
-0.052, -8.075e-3
-0.051, -8.131e-3
-0.050, -8.184e-3
-0.049, -8.240e-3
-0.048, -8.291e-3
-0.047, -8.345e-3
-0.046, -8.400e-3
-0.045, -8.456e-3
-0.044, -8.512e-3
-0.043, -8.564e-3
-0.042, -8.617e-3
-0.041, -8.672e-3
-0.040, -8.725e-3
-0.039, -8.777e-3
-0.038, -8.829e-3
-0.037, -8.885e-3
-0.036, -8.939e-3
-0.035, -8.992e-3
-0.034, -9.045e-3
-0.033, -9.099e-3
-0.032, -9.154e-3
-0.031, -9.209e-3
-0.030, -9.259e-3
-0.029, -9.314e-3
-0.028, -9.367e-3
-0.027, -9.419e-3
-0.026, -9.471e-3
-0.025, -9.527e-3
-0.024, -9.578e-3
-0.023, -9.634e-3
-0.022, -9.686e-3
-0.021, -9.740e-3
-0.020, -9.791e-3
-0.019, -9.846e-3
-0.018, -9.899e-3
-0.017, -9.956e-3
-0.016, -1.000e-2
-0.015, -1.006e-2
-0.014, -1.011e-2
-0.013, -1.016e-2
-0.012, -1.022e-2
-0.011, -1.027e-2
-0.010, -1.032e-2
-0.009, -1.038e-2
-0.008, -1.043e-2
-0.007, -1.049e-2
-0.006, -1.054e-2
-0.005, -1.059e-2
-0.004, -1.064e-2
-0.003, -1.070e-2
-0.002, -1.075e-2
-0.001, -1.080e-2
-0.000, -1.086e-2
0.001, -1.092e-2
0.002, -1.097e-2
0.003, -1.102e-2
0.004, -1.107e-2
0.005, -1.113e-2
0.006, -1.118e-2
0.007, -1.124e-2
0.008, -1.129e-2
0.009, -1.134e-2
0.010, -1.139e-2
0.011, -1.145e-2
0.012, -1.150e-2
0.013, -1.155e-2
0.014, -1.161e-2
0.015, -1.166e-2
0.016, -1.171e-2
0.017, -1.177e-2
0.018, -1.182e-2
0.019, -1.187e-2
0.020, -1.192e-2
0.021, -1.198e-2
0.022, -1.203e-2
0.023, -1.208e-2
0.024, -1.213e-2
0.025, -1.219e-2
0.026, -1.224e-2
0.027, -1.229e-2
0.028, -1.235e-2
0.029, -1.240e-2
0.030, -1.245e-2
0.031, -1.250e-2
0.032, -1.256e-2
0.033, -1.261e-2
0.034, -1.266e-2
0.035, -1.272e-2
0.036, -1.277e-2
0.037, -1.282e-2
0.038, -1.287e-2
0.039, -1.293e-2
0.040, -1.298e-2
0.041, -1.303e-2
0.042, -1.308e-2
0.043, -1.313e-2
0.044, -1.319e-2
0.045, -1.324e-2
0.046, -1.329e-2
0.047, -1.334e-2
0.048, -1.339e-2
0.049, -1.345e-2
0.050, -1.350e-2
0.051, -1.355e-2
0.052, -1.361e-2
0.053, -1.366e-2
0.054, -1.371e-2
0.055, -1.376e-2
0.056, -1.381e-2
0.057, -1.387e-2
0.058, -1.392e-2
0.059, -1.397e-2
0.060, -1.403e-2
0.061, -1.408e-2
0.062, -1.413e-2
0.063, -1.418e-2
0.064, -1.424e-2
0.065, -1.429e-2
0.066, -1.434e-2
0.067, -1.439e-2
0.068, -1.445e-2
0.069, -1.450e-2
0.070, -1.455e-2
0.071, -1.461e-2
0.072, -1.466e-2
0.073, -1.471e-2
0.074, -1.476e-2
0.075, -1.481e-2
0.076, -1.487e-2
0.077, -1.492e-2
0.078, -1.498e-2
0.079, -1.503e-2
0.080, -1.508e-2
0.081, -1.513e-2
0.082, -1.519e-2
0.083, -1.524e-2
0.084, -1.529e-2
0.085, -1.535e-2
0.086, -1.540e-2
0.087, -1.546e-2
0.088, -1.551e-2
0.089, -1.556e-2
0.090, -1.562e-2
0.091, -1.567e-2
0.092, -1.572e-2
0.093, -1.577e-2
0.094, -1.583e-2
0.095, -1.588e-2
0.096, -1.593e-2
0.097, -1.599e-2
0.098, -1.604e-2
0.099, -1.609e-2
0.100, -1.614e-2
0.101, -1.620e-2
0.102, -1.625e-2
0.103, -1.631e-2
0.104, -1.636e-2
0.105, -1.641e-2
0.106, -1.646e-2
0.107, -1.652e-2
0.108, -1.657e-2
0.109, -1.662e-2
0.110, -1.668e-2
0.111, -1.673e-2
0.112, -1.678e-2
0.113, -1.684e-2
0.114, -1.689e-2
0.115, -1.694e-2
0.116, -1.699e-2
0.117, -1.704e-2
0.118, -1.710e-2
0.119, -1.715e-2
0.120, -1.720e-2
0.121, -1.726e-2
0.122, -1.730e-2
0.123, -1.736e-2
0.124, -1.741e-2
0.125, -1.746e-2
0.126, -1.752e-2
0.127, -1.757e-2
0.128, -1.762e-2
0.129, -1.768e-2
0.130, -1.773e-2
0.131, -1.778e-2
0.132, -1.783e-2
0.133, -1.788e-2
0.134, -1.794e-2
0.135, -1.799e-2
0.136, -1.804e-2
0.137, -1.810e-2
0.138, -1.815e-2
0.139, -1.820e-2
0.140, -1.826e-2
0.141, -1.831e-2
0.142, -1.836e-2
0.143, -1.841e-2
0.144, -1.847e-2
0.145, -1.852e-2
0.146, -1.857e-2
0.147, -1.862e-2
0.148, -1.867e-2
0.149, -1.873e-2
0.150, -1.878e-2
0.151, -1.883e-2
0.152, -1.888e-2
0.153, -1.894e-2
0.154, -1.899e-2
0.155, -1.905e-2
0.156, -1.910e-2
0.157, -1.915e-2
0.158, -1.920e-2
0.159, -1.925e-2
0.160, -1.930e-2
0.161, -1.934e-2
0.162, -1.939e-2
0.163, -1.945e-2
0.164, -1.950e-2
0.165, -1.955e-2
0.166, -1.960e-2
0.167, -1.966e-2
0.168, -1.971e-2
0.169, -1.976e-2
0.170, -1.981e-2
0.171, -1.986e-2
0.172, -1.992e-2
0.173, -1.997e-2
0.174, -2.002e-2
0.175, -2.007e-2
0.176, -2.012e-2
0.177, -2.018e-2
0.178, -2.023e-2
0.179, -2.028e-2
0.180, -2.033e-2
0.181, -2.039e-2
0.182, -2.043e-2
0.183, -2.049e-2
0.184, -2.054e-2
0.185, -2.059e-2
0.186, -2.064e-2
0.187, -2.070e-2
0.188, -2.075e-2
0.189, -2.080e-2
0.190, -2.085e-2
0.191, -2.090e-2
0.192, -2.095e-2
0.193, -2.101e-2
0.194, -2.107e-2
0.195, -2.112e-2
0.196, -2.117e-2
0.197, -2.123e-2
0.198, -2.128e-2
0.199, -2.133e-2
0.200, -2.137e-2
0.201, -2.143e-2
0.202, -2.148e-2
0.203, -2.153e-2
0.204, -2.158e-2
0.205, -2.163e-2
0.206, -2.168e-2
0.207, -2.174e-2
0.208, -2.179e-2
0.209, -2.184e-2
0.210, -2.189e-2
0.211, -2.194e-2
0.212, -2.199e-2
0.213, -2.204e-2
0.214, -2.209e-2
0.215, -2.215e-2
0.216, -2.220e-2
0.217, -2.225e-2
0.218, -2.230e-2
0.219, -2.235e-2
0.220, -2.240e-2
0.221, -2.245e-2
0.222, -2.250e-2
0.223, -2.255e-2
0.224, -2.261e-2
0.225, -2.266e-2
0.226, -2.271e-2
0.227, -2.276e-2
0.228, -2.281e-2
0.229, -2.286e-2
0.230, -2.291e-2
0.231, -2.297e-2
0.232, -2.301e-2
0.233, -2.307e-2
0.234, -2.312e-2
0.235, -2.317e-2
0.236, -2.322e-2
0.237, -2.327e-2
0.238, -2.333e-2
0.239, -2.338e-2
0.240, -2.343e-2
0.241, -2.348e-2
0.242, -2.353e-2
0.243, -2.358e-2
0.244, -2.363e-2
0.245, -2.368e-2
0.246, -2.373e-2
0.247, -2.378e-2
0.248, -2.384e-2
0.249, -2.389e-2
0.250, -2.394e-2
0.251, -2.399e-2
0.252, -2.404e-2
0.253, -2.409e-2
0.254, -2.414e-2
0.255, -2.419e-2
0.256, -2.425e-2
0.257, -2.430e-2
0.258, -2.434e-2
0.259, -2.439e-2
0.260, -2.445e-2
0.261, -2.449e-2
0.262, -2.454e-2
0.263, -2.460e-2
0.264, -2.464e-2
0.265, -2.470e-2
0.266, -2.475e-2
0.267, -2.480e-2
0.268, -2.485e-2
0.269, -2.490e-2
0.270, -2.495e-2
0.271, -2.500e-2
0.272, -2.505e-2
0.273, -2.510e-2
0.274, -2.515e-2
0.275, -2.520e-2
0.276, -2.525e-2
0.277, -2.530e-2
0.278, -2.535e-2
0.279, -2.540e-2
0.280, -2.545e-2
0.281, -2.550e-2
0.282, -2.555e-2
0.283, -2.560e-2
0.284, -2.565e-2
0.285, -2.570e-2
0.286, -2.575e-2
0.287, -2.580e-2
0.288, -2.585e-2
0.289, -2.590e-2
0.290, -2.595e-2
0.291, -2.600e-2
0.292, -2.605e-2
0.293, -2.610e-2
0.294, -2.615e-2
0.295, -2.620e-2
0.296, -2.625e-2
0.297, -2.630e-2
0.298, -2.635e-2
0.299, -2.640e-2
0.300, -2.645e-2
0.301, -2.650e-2
0.302, -2.655e-2
0.303, -2.660e-2
0.304, -2.665e-2
0.305, -2.670e-2
0.306, -2.675e-2
0.307, -2.680e-2
0.308, -2.686e-2
0.309, -2.691e-2
0.310, -2.696e-2
0.311, -2.701e-2
0.312, -2.705e-2
0.313, -2.710e-2
0.314, -2.716e-2
0.315, -2.720e-2
0.316, -2.726e-2
0.317, -2.731e-2
0.318, -2.736e-2
0.319, -2.741e-2
0.320, -2.746e-2
0.321, -2.751e-2
0.322, -2.756e-2
0.323, -2.761e-2
0.324, -2.766e-2
0.325, -2.771e-2
0.326, -2.776e-2
0.327, -2.781e-2
0.328, -2.786e-2
0.329, -2.791e-2
0.330, -2.796e-2
0.331, -2.801e-2
0.332, -2.806e-2
0.333, -2.811e-2
0.334, -2.816e-2
0.335, -2.821e-2
0.336, -2.826e-2
0.337, -2.831e-2
0.338, -2.836e-2
0.339, -2.842e-2
0.340, -2.847e-2
0.341, -2.852e-2
0.342, -2.857e-2
0.343, -2.862e-2
0.344, -2.867e-2
0.345, -2.872e-2
0.346, -2.877e-2
0.347, -2.881e-2
0.348, -2.887e-2
0.349, -2.892e-2
0.350, -2.897e-2
0.351, -2.902e-2
0.352, -2.906e-2
0.353, -2.911e-2
0.354, -2.916e-2
0.355, -2.921e-2
0.356, -2.926e-2
0.357, -2.931e-2
0.358, -2.936e-2
0.359, -2.941e-2
0.360, -2.946e-2
0.361, -2.951e-2
0.362, -2.956e-2
0.363, -2.961e-2
0.364, -2.966e-2
0.365, -2.971e-2
0.366, -2.976e-2
0.367, -2.981e-2
0.368, -2.986e-2
0.369, -2.991e-2
0.370, -2.996e-2
0.371, -3.001e-2
0.372, -3.006e-2
0.373, -3.010e-2
0.374, -3.015e-2
0.375, -3.020e-2
0.376, -3.025e-2
0.377, -3.030e-2
0.378, -3.035e-2
0.379, -3.039e-2
0.380, -3.044e-2
0.381, -3.049e-2
0.382, -3.054e-2
0.383, -3.059e-2
0.384, -3.064e-2
0.385, -3.069e-2
0.386, -3.074e-2
0.387, -3.079e-2
0.388, -3.084e-2
0.389, -3.088e-2
0.390, -3.093e-2
0.391, -3.098e-2
0.392, -3.103e-2
0.393, -3.108e-2
0.394, -3.113e-2
0.395, -3.117e-2
0.396, -3.122e-2
0.397, -3.127e-2
0.398, -3.132e-2
0.399, -3.137e-2
0.400, -3.141e-2
0.401, -3.146e-2
0.402, -3.151e-2
0.403, -3.156e-2
0.404, -3.160e-2
0.405, -3.165e-2
0.406, -3.170e-2
0.407, -3.174e-2
0.408, -3.179e-2
0.409, -3.184e-2
0.410, -3.189e-2
0.411, -3.194e-2
0.412, -3.199e-2
0.413, -3.203e-2
0.414, -3.208e-2
0.415, -3.212e-2
0.416, -3.217e-2
0.417, -3.222e-2
0.418, -3.226e-2
0.419, -3.231e-2
0.420, -3.236e-2
0.421, -3.240e-2
0.422, -3.245e-2
0.423, -3.249e-2
0.424, -3.254e-2
0.425, -3.259e-2
0.426, -3.264e-2
0.427, -3.268e-2
0.428, -3.273e-2
0.429, -3.277e-2
0.430, -3.282e-2
0.431, -3.286e-2
0.432, -3.291e-2
0.433, -3.295e-2
0.434, -3.299e-2
0.435, -3.304e-2
0.436, -3.309e-2
0.437, -3.313e-2
0.438, -3.318e-2
0.439, -3.322e-2
0.440, -3.327e-2
0.441, -3.331e-2
0.442, -3.336e-2
0.443, -3.340e-2
0.444, -3.345e-2
0.445, -3.349e-2
0.446, -3.354e-2
0.447, -3.358e-2
0.448, -3.362e-2
0.449, -3.367e-2
0.450, -3.372e-2
0.451, -3.376e-2
0.452, -3.380e-2
0.453, -3.385e-2
0.454, -3.389e-2
0.455, -3.394e-2
0.456, -3.398e-2
0.457, -3.403e-2
0.458, -3.407e-2
0.459, -3.411e-2
0.460, -3.416e-2
0.461, -3.420e-2
0.462, -3.425e-2
0.463, -3.429e-2
0.464, -3.434e-2
0.465, -3.438e-2
0.466, -3.442e-2
0.467, -3.447e-2
0.468, -3.451e-2
0.469, -3.455e-2
0.470, -3.460e-2
0.471, -3.464e-2
0.472, -3.469e-2
0.473, -3.473e-2
0.474, -3.477e-2
0.475, -3.482e-2
0.476, -3.486e-2
0.477, -3.490e-2
0.478, -3.495e-2
0.479, -3.499e-2
0.480, -3.503e-2
0.481, -3.507e-2
0.482, -3.511e-2
0.483, -3.515e-2
0.484, -3.520e-2
0.485, -3.524e-2
0.486, -3.528e-2
0.487, -3.533e-2
0.488, -3.537e-2
0.489, -3.541e-2
0.490, -3.546e-2
0.491, -3.550e-2
0.492, -3.555e-2
0.493, -3.559e-2
0.494, -3.563e-2
0.495, -3.567e-2
0.496, -3.572e-2
0.497, -3.576e-2
0.498, -3.581e-2
0.499, -3.585e-2
0.500, -3.589e-2
0.501, -3.593e-2
0.502, -3.598e-2
0.503, -3.602e-2
0.504, -3.606e-2
0.505, -3.610e-2
0.506, -3.615e-2
0.507, -3.619e-2
0.508, -3.624e-2
0.509, -3.628e-2
0.510, -3.632e-2
0.511, -3.636e-2
0.512, -3.641e-2
0.513, -3.645e-2
0.514, -3.650e-2
0.515, -3.654e-2
0.516, -3.659e-2
0.517, -3.662e-2
0.518, -3.667e-2
0.519, -3.671e-2
0.520, -3.676e-2
0.521, -3.680e-2
0.522, -3.684e-2
0.523, -3.688e-2
0.524, -3.693e-2
0.525, -3.697e-2
0.526, -3.701e-2
0.527, -3.705e-2
0.528, -3.710e-2
0.529, -3.714e-2
0.530, -3.719e-2
0.531, -3.723e-2
0.532, -3.727e-2
0.533, -3.731e-2
0.534, -3.736e-2
0.535, -3.740e-2
0.536, -3.745e-2
0.537, -3.749e-2
0.538, -3.754e-2
0.539, -3.758e-2
0.540, -3.763e-2
0.541, -3.767e-2
0.542, -3.772e-2
0.543, -3.777e-2
0.544, -3.782e-2
0.545, -3.786e-2
0.546, -3.790e-2
0.547, -3.795e-2
0.548, -3.800e-2
0.549, -3.804e-2
0.550, -3.809e-2
0.551, -3.813e-2
0.552, -3.818e-2
0.553, -3.822e-2
0.554, -3.827e-2
0.555, -3.832e-2
0.556, -3.837e-2
0.557, -3.842e-2
0.558, -3.847e-2
0.559, -3.852e-2
0.560, -3.857e-2
0.561, -3.862e-2
0.562, -3.867e-2
0.563, -3.872e-2
0.564, -3.877e-2
0.565, -3.882e-2
0.566, -3.887e-2
0.567, -3.892e-2
0.568, -3.898e-2
0.569, -3.903e-2
0.570, -3.908e-2
0.571, -3.913e-2
0.572, -3.919e-2
0.573, -3.924e-2
0.574, -3.930e-2
0.575, -3.935e-2
0.576, -3.941e-2
0.577, -3.946e-2
0.578, -3.952e-2
0.579, -3.957e-2
0.580, -3.963e-2
0.581, -3.969e-2
0.582, -3.975e-2
0.583, -3.980e-2
0.584, -3.987e-2
0.585, -3.992e-2
0.586, -3.998e-2
0.587, -4.004e-2
0.588, -4.010e-2
0.589, -4.017e-2
0.590, -4.023e-2
0.591, -4.028e-2
0.592, -4.035e-2
0.593, -4.041e-2
0.594, -4.047e-2
0.595, -4.053e-2
0.596, -4.059e-2
0.597, -4.065e-2
0.598, -4.072e-2
0.599, -4.078e-2
0.600, -4.084e-2
0.601, -4.090e-2
0.602, -4.096e-2
0.603, -4.102e-2
0.604, -4.109e-2
0.605, -4.115e-2
0.606, -4.122e-2
0.607, -4.128e-2
0.608, -4.134e-2
0.609, -4.140e-2
0.610, -4.146e-2
0.611, -4.152e-2
0.612, -4.159e-2
0.613, -4.165e-2
0.614, -4.172e-2
0.615, -4.178e-2
0.616, -4.185e-2
0.617, -4.191e-2
0.618, -4.197e-2
0.619, -4.204e-2
0.620, -4.210e-2
0.621, -4.216e-2
0.622, -4.223e-2
0.623, -4.229e-2
0.624, -4.236e-2
0.625, -4.242e-2
0.626, -4.248e-2
0.627, -4.254e-2
0.628, -4.261e-2
0.629, -4.268e-2
0.630, -4.274e-2
0.631, -4.280e-2
0.632, -4.287e-2
0.633, -4.293e-2
0.634, -4.300e-2
0.635, -4.306e-2
0.636, -4.313e-2
0.637, -4.319e-2
0.638, -4.325e-2
0.639, -4.332e-2
0.640, -4.338e-2
0.641, -4.344e-2
0.642, -4.351e-2
0.643, -4.357e-2
0.644, -4.363e-2
0.645, -4.369e-2
0.646, -4.376e-2
0.647, -4.382e-2
0.648, -4.389e-2
0.649, -4.395e-2
0.650, -4.401e-2
0.651, -4.407e-2
0.652, -4.413e-2
0.653, -4.420e-2
0.654, -4.426e-2
0.655, -4.432e-2
0.656, -4.438e-2
0.657, -4.444e-2
0.658, -4.451e-2
0.659, -4.456e-2
0.660, -4.463e-2
0.661, -4.468e-2
0.662, -4.475e-2
0.663, -4.481e-2
0.664, -4.487e-2
0.665, -4.492e-2
0.666, -4.496e-2
0.667, -4.502e-2
0.668, -4.509e-2
0.669, -4.513e-2
0.670, -4.519e-2
0.671, -4.525e-2
0.672, -4.530e-2
0.673, -4.536e-2
0.674, -4.542e-2
0.675, -4.546e-2
0.676, -4.552e-2
0.677, -4.555e-2
0.678, -4.559e-2
0.679, -4.565e-2
0.680, -4.571e-2
0.681, -4.577e-2
0.682, -4.582e-2
0.683, -4.587e-2
0.684, -4.592e-2
0.685, -4.597e-2
0.686, -4.603e-2
0.687, -4.608e-2
0.688, -4.613e-2
0.689, -4.619e-2
0.690, -4.624e-2
0.691, -4.629e-2
0.692, -4.635e-2
0.693, -4.640e-2
0.694, -4.645e-2
0.695, -4.650e-2
0.696, -4.655e-2
0.697, -4.660e-2
0.698, -4.665e-2
0.699, -4.669e-2
0.700, -4.674e-2
0.701, -4.679e-2
0.702, -4.683e-2
0.703, -4.687e-2
0.704, -4.692e-2
0.705, -4.697e-2
0.706, -4.701e-2
0.707, -4.705e-2
0.708, -4.709e-2
0.709, -4.713e-2
0.710, -4.718e-2
0.711, -4.722e-2
0.712, -4.726e-2
0.713, -4.730e-2
0.714, -4.735e-2
0.715, -4.738e-2
0.716, -4.743e-2
0.717, -4.746e-2
0.718, -4.750e-2
0.719, -4.754e-2
0.720, -4.758e-2
0.721, -4.762e-2
0.722, -4.766e-2
0.723, -4.770e-2
0.724, -4.773e-2
0.725, -4.777e-2
0.726, -4.780e-2
0.727, -4.784e-2
0.728, -4.787e-2
0.729, -4.791e-2
0.730, -4.794e-2
0.731, -4.798e-2
0.732, -4.801e-2
0.733, -4.804e-2
0.734, -4.808e-2
0.735, -4.811e-2
0.736, -4.814e-2
0.737, -4.818e-2
0.738, -4.821e-2
0.739, -4.824e-2
0.740, -4.826e-2
0.741, -4.829e-2
0.742, -4.833e-2
0.743, -4.836e-2
0.744, -4.839e-2
0.745, -4.842e-2
0.746, -4.845e-2
0.747, -4.848e-2
0.748, -4.851e-2
0.749, -4.854e-2
0.750, -4.857e-2
0.751, -4.860e-2
0.752, -4.862e-2
0.753, -4.865e-2
0.754, -4.868e-2
0.755, -4.871e-2
0.756, -4.874e-2
0.757, -4.876e-2
0.758, -4.879e-2
0.759, -4.881e-2
0.760, -4.884e-2
0.761, -4.886e-2
0.762, -4.889e-2
0.763, -4.891e-2
0.764, -4.894e-2
0.765, -4.896e-2
0.766, -4.899e-2
0.767, -4.901e-2
0.768, -4.904e-2
0.769, -4.908e-2
0.770, -4.912e-2
0.771, -4.914e-2
0.772, -4.916e-2
0.773, -4.918e-2
0.774, -4.919e-2
0.775, -4.920e-2
0.776, -4.922e-2
0.777, -4.923e-2
0.778, -4.925e-2
0.779, -4.927e-2
0.780, -4.929e-2
0.781, -4.930e-2
0.782, -4.932e-2
0.783, -4.934e-2
0.784, -4.935e-2
0.785, -4.936e-2
0.786, -4.938e-2
0.787, -4.940e-2
0.788, -4.941e-2
0.789, -4.943e-2
0.790, -4.945e-2
0.791, -4.945e-2
0.792, -4.947e-2
0.793, -4.948e-2
0.794, -4.949e-2
0.795, -4.950e-2
0.796, -4.952e-2
0.797, -4.953e-2
0.798, -4.954e-2
0.799, -4.955e-2
0.800, -4.947e-2
0.799, -4.919e-2
0.798, -4.894e-2
0.797, -4.871e-2
0.796, -4.849e-2
0.795, -4.827e-2
0.794, -4.806e-2
0.793, -4.786e-2
0.792, -4.766e-2
0.791, -4.746e-2
0.790, -4.726e-2
0.789, -4.707e-2
0.788, -4.688e-2
0.787, -4.669e-2
0.786, -4.651e-2
0.785, -4.631e-2
0.784, -4.613e-2
0.783, -4.595e-2
0.782, -4.578e-2
0.781, -4.561e-2
0.780, -4.544e-2
0.779, -4.527e-2
0.778, -4.510e-2
0.777, -4.493e-2
0.776, -4.477e-2
0.775, -4.461e-2
0.774, -4.445e-2
0.773, -4.428e-2
0.772, -4.412e-2
0.771, -4.396e-2
0.770, -4.381e-2
0.769, -4.364e-2
0.768, -4.349e-2
0.767, -4.333e-2
0.766, -4.318e-2
0.765, -4.302e-2
0.764, -4.287e-2
0.763, -4.271e-2
0.762, -4.257e-2
0.761, -4.242e-2
0.760, -4.227e-2
0.759, -4.212e-2
0.758, -4.197e-2
0.757, -4.183e-2
0.756, -4.168e-2
0.755, -4.154e-2
0.754, -4.140e-2
0.753, -4.125e-2
0.752, -4.111e-2
0.751, -4.097e-2
0.750, -4.083e-2
0.749, -4.069e-2
0.748, -4.055e-2
0.747, -4.042e-2
0.746, -4.028e-2
0.745, -4.014e-2
0.744, -4.001e-2
0.743, -3.987e-2
0.742, -3.973e-2
0.741, -3.960e-2
0.740, -3.947e-2
0.739, -3.934e-2
0.738, -3.921e-2
0.737, -3.908e-2
0.736, -3.895e-2
0.735, -3.881e-2
0.734, -3.868e-2
0.733, -3.855e-2
0.732, -3.842e-2
0.731, -3.828e-2
0.730, -3.816e-2
0.729, -3.803e-2
0.728, -3.791e-2
0.727, -3.778e-2
0.726, -3.765e-2
0.725, -3.752e-2
0.724, -3.740e-2
0.723, -3.727e-2
0.722, -3.715e-2
0.721, -3.703e-2
0.720, -3.691e-2
0.719, -3.678e-2
0.718, -3.667e-2
0.717, -3.654e-2
0.716, -3.642e-2
0.715, -3.629e-2
0.714, -3.617e-2
0.713, -3.605e-2
0.712, -3.594e-2
0.711, -3.581e-2
0.710, -3.570e-2
0.709, -3.557e-2
0.708, -3.546e-2
0.707, -3.534e-2
0.706, -3.522e-2
0.705, -3.510e-2
0.704, -3.498e-2
0.703, -3.487e-2
0.702, -3.475e-2
0.701, -3.463e-2
0.700, -3.452e-2
0.699, -3.441e-2
0.698, -3.430e-2
0.697, -3.418e-2
0.696, -3.407e-2
0.695, -3.395e-2
0.694, -3.384e-2
0.693, -3.372e-2
0.692, -3.360e-2
0.691, -3.349e-2
0.690, -3.338e-2
0.689, -3.326e-2
0.688, -3.315e-2
0.687, -3.304e-2
0.686, -3.294e-2
0.685, -3.282e-2
0.684, -3.271e-2
0.683, -3.260e-2
0.682, -3.249e-2
0.681, -3.238e-2
0.680, -3.227e-2
0.679, -3.216e-2
0.678, -3.206e-2
0.677, -3.195e-2
0.676, -3.184e-2
0.675, -3.174e-2
0.674, -3.164e-2
0.673, -3.154e-2
0.672, -3.145e-2
0.671, -3.137e-2
0.670, -3.132e-2
0.669, -3.126e-2
0.668, -3.117e-2
0.667, -3.106e-2
0.666, -3.095e-2
0.665, -3.083e-2
0.664, -3.072e-2
0.663, -3.060e-2
0.662, -3.050e-2
0.661, -3.038e-2
0.660, -3.027e-2
0.659, -3.016e-2
0.658, -3.005e-2
0.657, -2.994e-2
0.656, -2.984e-2
0.655, -2.972e-2
0.654, -2.962e-2
0.653, -2.951e-2
0.652, -2.940e-2
0.651, -2.930e-2
0.650, -2.919e-2
0.649, -2.909e-2
0.648, -2.899e-2
0.647, -2.888e-2
0.646, -2.877e-2
0.645, -2.867e-2
0.644, -2.856e-2
0.643, -2.846e-2
0.642, -2.835e-2
0.641, -2.825e-2
0.640, -2.814e-2
0.639, -2.803e-2
0.638, -2.793e-2
0.637, -2.782e-2
0.636, -2.772e-2
0.635, -2.762e-2
0.634, -2.752e-2
0.633, -2.741e-2
0.632, -2.731e-2
0.631, -2.720e-2
0.630, -2.711e-2
0.629, -2.700e-2
0.628, -2.690e-2
0.627, -2.680e-2
0.626, -2.669e-2
0.625, -2.659e-2
0.624, -2.649e-2
0.623, -2.638e-2
0.622, -2.628e-2
0.621, -2.617e-2
0.620, -2.607e-2
0.619, -2.596e-2
0.618, -2.586e-2
0.617, -2.576e-2
0.616, -2.567e-2
0.615, -2.556e-2
0.614, -2.546e-2
0.613, -2.535e-2
0.612, -2.525e-2
0.611, -2.514e-2
0.610, -2.505e-2
0.609, -2.494e-2
0.608, -2.484e-2
0.607, -2.473e-2
0.606, -2.464e-2
0.605, -2.453e-2
0.604, -2.443e-2
0.603, -2.432e-2
0.602, -2.422e-2
0.601, -2.411e-2
0.600, -2.402e-2
0.599, -2.391e-2
0.598, -2.381e-2
0.597, -2.370e-2
0.596, -2.360e-2
0.595, -2.350e-2
0.594, -2.340e-2
0.593, -2.329e-2
0.592, -2.319e-2
0.591, -2.308e-2
0.590, -2.298e-2
0.589, -2.287e-2
0.588, -2.277e-2
0.587, -2.267e-2
0.586, -2.256e-2
0.585, -2.246e-2
0.584, -2.236e-2
0.583, -2.225e-2
0.582, -2.215e-2
0.581, -2.204e-2
0.580, -2.194e-2
0.579, -2.183e-2
0.578, -2.173e-2
0.577, -2.163e-2
0.576, -2.153e-2
0.575, -2.142e-2
0.574, -2.132e-2
0.573, -2.121e-2
0.572, -2.112e-2
0.571, -2.101e-2
0.570, -2.091e-2
0.569, -2.080e-2
0.568, -2.070e-2
0.567, -2.059e-2
0.566, -2.049e-2
0.565, -2.038e-2
0.564, -2.028e-2
0.563, -2.017e-2
0.562, -2.007e-2
0.561, -1.996e-2
0.560, -1.986e-2
0.559, -1.976e-2
0.558, -1.966e-2
0.557, -1.955e-2
0.556, -1.945e-2
0.555, -1.934e-2
0.554, -1.925e-2
0.553, -1.915e-2
0.552, -1.905e-2
0.551, -1.894e-2
0.550, -1.884e-2
0.549, -1.873e-2
0.548, -1.863e-2
0.547, -1.853e-2
0.546, -1.843e-2
0.545, -1.832e-2
0.544, -1.822e-2
0.543, -1.812e-2
0.542, -1.802e-2
0.541, -1.791e-2
0.540, -1.781e-2
0.539, -1.771e-2
0.538, -1.761e-2
0.537, -1.750e-2
0.536, -1.740e-2
0.535, -1.730e-2
0.534, -1.720e-2
0.533, -1.710e-2
0.532, -1.700e-2
0.531, -1.690e-2
0.530, -1.680e-2
0.529, -1.670e-2
0.528, -1.661e-2
0.527, -1.650e-2
0.526, -1.641e-2
0.525, -1.631e-2
0.524, -1.621e-2
0.523, -1.611e-2
0.522, -1.602e-2
0.521, -1.592e-2
0.520, -1.583e-2
0.519, -1.573e-2
0.518, -1.564e-2
0.517, -1.554e-2
0.516, -1.545e-2
0.515, -1.535e-2
0.514, -1.526e-2
0.513, -1.516e-2
0.512, -1.507e-2
0.511, -1.497e-2
0.510, -1.488e-2
0.509, -1.479e-2
0.508, -1.470e-2
0.507, -1.461e-2
0.506, -1.452e-2
0.505, -1.442e-2
0.504, -1.434e-2
0.503, -1.424e-2
0.502, -1.416e-2
0.501, -1.406e-2
0.500, -1.398e-2
0.499, -1.389e-2
0.498, -1.380e-2
0.497, -1.371e-2
0.496, -1.363e-2
0.495, -1.353e-2
0.494, -1.345e-2
0.493, -1.336e-2
0.492, -1.328e-2
0.491, -1.319e-2
0.490, -1.311e-2
0.489, -1.302e-2
0.488, -1.294e-2
0.487, -1.285e-2
0.486, -1.277e-2
0.485, -1.268e-2
0.484, -1.260e-2
0.483, -1.251e-2
0.482, -1.243e-2
0.481, -1.234e-2
0.480, -1.225e-2
0.479, -1.217e-2
0.478, -1.209e-2
0.477, -1.200e-2
0.476, -1.192e-2
0.475, -1.183e-2
0.474, -1.175e-2
0.473, -1.167e-2
0.472, -1.159e-2
0.471, -1.150e-2
0.470, -1.142e-2
0.469, -1.134e-2
0.468, -1.126e-2
0.467, -1.117e-2
0.466, -1.110e-2
0.465, -1.101e-2
0.464, -1.094e-2
0.463, -1.085e-2
0.462, -1.078e-2
0.461, -1.069e-2
0.460, -1.062e-2
0.459, -1.054e-2
0.458, -1.046e-2
0.457, -1.038e-2
0.456, -1.031e-2
0.455, -1.023e-2
0.454, -1.016e-2
0.453, -1.007e-2
0.452, -1.000e-2
0.451, -9.929e-3
0.450, -9.856e-3
0.449, -9.777e-3
0.448, -9.708e-3
0.447, -9.630e-3
0.446, -9.560e-3
0.445, -9.484e-3
0.444, -9.416e-3
0.443, -9.343e-3
0.442, -9.273e-3
0.441, -9.198e-3
0.440, -9.131e-3
0.439, -9.055e-3
0.438, -8.989e-3
0.437, -8.915e-3
0.436, -8.846e-3
0.435, -8.773e-3
0.434, -8.708e-3
0.433, -8.634e-3
0.432, -8.569e-3
0.431, -8.497e-3
0.430, -8.430e-3
0.429, -8.354e-3
0.428, -8.289e-3
0.427, -8.219e-3
0.426, -8.153e-3
0.425, -8.082e-3
0.424, -8.018e-3
0.423, -7.945e-3
0.422, -7.881e-3
0.421, -7.813e-3
0.420, -7.749e-3
0.419, -7.677e-3
0.418, -7.615e-3
0.417, -7.546e-3
0.416, -7.483e-3
0.415, -7.410e-3
0.414, -7.348e-3
0.413, -7.279e-3
0.412, -7.216e-3
0.411, -7.148e-3
0.410, -7.083e-3
0.409, -7.013e-3
0.408, -6.951e-3
0.407, -6.880e-3
0.406, -6.821e-3
0.405, -6.754e-3
0.404, -6.694e-3
0.403, -6.627e-3
0.402, -6.567e-3
0.401, -6.503e-3
0.400, -6.442e-3
0.399, -6.374e-3
0.398, -6.316e-3
0.397, -6.249e-3
0.396, -6.189e-3
0.395, -6.124e-3
0.394, -6.065e-3
0.393, -5.998e-3
0.392, -5.941e-3
0.391, -5.874e-3
0.390, -5.815e-3
0.389, -5.750e-3
0.388, -5.691e-3
0.387, -5.626e-3
0.386, -5.569e-3
0.385, -5.505e-3
0.384, -5.447e-3
0.383, -5.383e-3
0.382, -5.327e-3
0.381, -5.261e-3
0.380, -5.203e-3
0.379, -5.139e-3
0.378, -5.081e-3
0.377, -5.015e-3
0.376, -4.956e-3
0.375, -4.892e-3
0.374, -4.835e-3
0.373, -4.769e-3
0.372, -4.710e-3
0.371, -4.646e-3
0.370, -4.588e-3
0.369, -4.522e-3
0.368, -4.465e-3
0.367, -4.401e-3
0.366, -4.345e-3
0.365, -4.277e-3
0.364, -4.219e-3
0.363, -4.154e-3
0.362, -4.096e-3
0.361, -4.032e-3
0.360, -3.975e-3
0.359, -3.909e-3
0.358, -3.848e-3
0.357, -3.783e-3
0.356, -3.724e-3
0.355, -3.662e-3
0.354, -3.607e-3
0.353, -3.544e-3
0.352, -3.483e-3
0.351, -3.417e-3
0.350, -3.361e-3
0.349, -3.295e-3
0.348, -3.236e-3
0.347, -3.172e-3
0.346, -3.114e-3
0.345, -3.047e-3
0.344, -2.988e-3
0.343, -2.924e-3
0.342, -2.867e-3
0.341, -2.799e-3
0.340, -2.739e-3
0.339, -2.673e-3
0.338, -2.613e-3
0.337, -2.548e-3
0.336, -2.489e-3
0.335, -2.423e-3
0.334, -2.366e-3
0.333, -2.297e-3
0.332, -2.239e-3
0.331, -2.173e-3
0.330, -2.113e-3
0.329, -2.048e-3
0.328, -1.991e-3
0.327, -1.923e-3
0.326, -1.864e-3
0.325, -1.797e-3
0.324, -1.739e-3
0.323, -1.674e-3
0.322, -1.615e-3
0.321, -1.552e-3
0.320, -1.494e-3
0.319, -1.430e-3
0.318, -1.372e-3
0.317, -1.304e-3
0.316, -1.245e-3
0.315, -1.179e-3
0.314, -1.119e-3
0.313, -1.054e-3
0.312, -9.930e-4
0.311, -9.269e-4
0.310, -8.683e-4
0.309, -8.022e-4
0.308, -7.428e-4
0.307, -6.747e-4
0.306, -6.144e-4
0.305, -5.477e-4
0.304, -4.888e-4
0.303, -4.212e-4
0.302, -3.622e-4
0.301, -2.954e-4
0.300, -2.362e-4
0.299, -1.708e-4
0.298, -1.102e-4
0.297, -4.546e-5
0.296, 1.620e-5
0.295, 8.287e-5
0.294, 1.408e-4
0.293, 2.058e-4
0.292, 2.657e-4
0.291, 3.321e-4
0.290, 3.935e-4
0.289, 4.632e-4
0.288, 5.213e-4
0.287, 5.870e-4
0.286, 6.474e-4
0.285, 7.142e-4
0.284, 7.758e-4
0.283, 8.413e-4
0.282, 9.023e-4
0.281, 9.681e-4
0.280, 1.026e-3
0.279, 1.095e-3
0.278, 1.153e-3
0.277, 1.220e-3
0.276, 1.280e-3
0.275, 1.346e-3
0.274, 1.405e-3
0.273, 1.470e-3
0.272, 1.532e-3
0.271, 1.598e-3
0.270, 1.656e-3
0.269, 1.724e-3
0.268, 1.783e-3
0.267, 1.847e-3
0.266, 1.907e-3
0.265, 1.974e-3
0.264, 2.034e-3
0.263, 2.098e-3
0.262, 2.158e-3
0.261, 2.224e-3
0.260, 2.282e-3
0.259, 2.345e-3
0.258, 2.402e-3
0.257, 2.467e-3
0.256, 2.527e-3
0.255, 2.593e-3
0.254, 2.650e-3
0.253, 2.718e-3
0.252, 2.776e-3
0.251, 2.840e-3
0.250, 2.899e-3
0.249, 2.965e-3
0.248, 3.025e-3
0.247, 3.090e-3
0.246, 3.148e-3
0.245, 3.214e-3
0.244, 3.274e-3
0.243, 3.337e-3
0.242, 3.395e-3
0.241, 3.460e-3
0.240, 3.517e-3
0.239, 3.579e-3
0.238, 3.637e-3
0.237, 3.704e-3
0.236, 3.762e-3
0.235, 3.826e-3
0.234, 3.885e-3
0.233, 3.951e-3
0.232, 4.007e-3
0.231, 4.074e-3
0.230, 4.132e-3
0.229, 4.199e-3
0.228, 4.258e-3
0.227, 4.320e-3
0.226, 4.375e-3
0.225, 4.438e-3
0.224, 4.495e-3
0.223, 4.560e-3
0.222, 4.616e-3
0.221, 4.681e-3
0.220, 4.737e-3
0.219, 4.798e-3
0.218, 4.854e-3
0.217, 4.919e-3
0.216, 4.976e-3
0.215, 5.037e-3
0.214, 5.092e-3
0.213, 5.156e-3
0.212, 5.213e-3
0.211, 5.274e-3
0.210, 5.329e-3
0.209, 5.395e-3
0.208, 5.449e-3
0.207, 5.512e-3
0.206, 5.566e-3
0.205, 5.630e-3
0.204, 5.686e-3
0.203, 5.742e-3
0.202, 5.798e-3
0.201, 5.862e-3
0.200, 5.915e-3
0.199, 5.976e-3
0.198, 6.030e-3
0.197, 6.091e-3
0.196, 6.146e-3
0.195, 6.205e-3
0.194, 6.259e-3
0.193, 6.317e-3
0.192, 6.370e-3
0.191, 6.431e-3
0.190, 6.482e-3
0.189, 6.543e-3
0.188, 6.596e-3
0.187, 6.656e-3
0.186, 6.709e-3
0.185, 6.767e-3
0.184, 6.820e-3
0.183, 6.882e-3
0.182, 6.932e-3
0.181, 6.989e-3
0.180, 7.041e-3
0.179, 7.099e-3
0.178, 7.152e-3
0.177, 7.209e-3
0.176, 7.262e-3
0.175, 7.324e-3
0.174, 7.373e-3
0.173, 7.431e-3
0.172, 7.483e-3
0.171, 7.542e-3
0.170, 7.594e-3
0.169, 7.651e-3
0.168, 7.701e-3
0.167, 7.761e-3
0.166, 7.812e-3
0.165, 7.869e-3
0.164, 7.919e-3
0.163, 7.976e-3
0.162, 8.029e-3
0.161, 8.086e-3
0.160, 8.136e-3
0.159, 8.196e-3
0.158, 8.246e-3
0.157, 8.303e-3
0.156, 8.356e-3
0.155, 8.412e-3
0.154, 8.464e-3
0.153, 8.524e-3
0.152, 8.575e-3
0.151, 8.634e-3
0.150, 8.683e-3
0.149, 8.740e-3
0.148, 8.792e-3
0.147, 8.850e-3
0.146, 8.900e-3
0.145, 8.958e-3
0.144, 9.008e-3
0.143, 9.068e-3
0.142, 9.115e-3
0.141, 9.171e-3
0.140, 9.223e-3
0.139, 9.282e-3
0.138, 9.333e-3
0.137, 9.388e-3
0.136, 9.439e-3
0.135, 9.498e-3
0.134, 9.550e-3
0.133, 9.607e-3
0.132, 9.658e-3
0.131, 9.715e-3
0.130, 9.767e-3
0.129, 9.824e-3
0.128, 9.874e-3
0.127, 9.933e-3
0.126, 9.983e-3
0.125, 1.004e-2
0.124, 1.009e-2
0.123, 1.015e-2
0.122, 1.020e-2
0.121, 1.026e-2
0.120, 1.031e-2
0.119, 1.036e-2
0.118, 1.041e-2
0.117, 1.047e-2
0.116, 1.052e-2
0.115, 1.058e-2
0.114, 1.063e-2
0.113, 1.069e-2
0.112, 1.074e-2
0.111, 1.080e-2
0.110, 1.085e-2
0.109, 1.091e-2
0.108, 1.096e-2
0.107, 1.102e-2
0.106, 1.107e-2
0.105, 1.113e-2
0.104, 1.118e-2
0.103, 1.124e-2
0.102, 1.129e-2
0.101, 1.135e-2
0.100, 1.140e-2
0.099, 1.146e-2
0.098, 1.151e-2
0.097, 1.157e-2
0.096, 1.162e-2
0.095, 1.168e-2
0.094, 1.173e-2
0.093, 1.179e-2
0.092, 1.184e-2
0.091, 1.190e-2
0.090, 1.195e-2
0.089, 1.201e-2
0.088, 1.206e-2
0.087, 1.211e-2
0.086, 1.215e-2
0.085, 1.221e-2
0.084, 1.226e-2
0.083, 1.232e-2
0.082, 1.237e-2
0.081, 1.243e-2
0.080, 1.248e-2
0.079, 1.254e-2
0.078, 1.259e-2
0.077, 1.265e-2
0.076, 1.271e-2
0.075, 1.277e-2
0.074, 1.282e-2
0.073, 1.288e-2
0.072, 1.293e-2
0.071, 1.299e-2
0.070, 1.304e-2
0.069, 1.310e-2
0.068, 1.315e-2
0.067, 1.321e-2
0.066, 1.326e-2
0.065, 1.332e-2
0.064, 1.337e-2
0.063, 1.344e-2
0.062, 1.349e-2
0.061, 1.355e-2
0.060, 1.360e-2
0.059, 1.366e-2
0.058, 1.371e-2
0.057, 1.377e-2
0.056, 1.382e-2
0.055, 1.388e-2
0.054, 1.394e-2
0.053, 1.400e-2
0.052, 1.405e-2
0.051, 1.411e-2
0.050, 1.416e-2
0.049, 1.422e-2
0.048, 1.427e-2
0.047, 1.433e-2
0.046, 1.438e-2
0.045, 1.444e-2
0.044, 1.450e-2
0.043, 1.455e-2
0.042, 1.461e-2
0.041, 1.467e-2
0.040, 1.472e-2
0.039, 1.478e-2
0.038, 1.483e-2
0.037, 1.489e-2
0.036, 1.495e-2
0.035, 1.500e-2
0.034, 1.506e-2
0.033, 1.512e-2
0.032, 1.517e-2
0.031, 1.523e-2
0.030, 1.529e-2
0.029, 1.535e-2
0.028, 1.540e-2
0.027, 1.546e-2
0.026, 1.551e-2
0.025, 1.557e-2
0.024, 1.563e-2
0.023, 1.569e-2
0.022, 1.574e-2
0.021, 1.580e-2
0.020, 1.585e-2
0.019, 1.591e-2
0.018, 1.597e-2
0.017, 1.603e-2
0.016, 1.608e-2
0.015, 1.614e-2
0.014, 1.620e-2
0.013, 1.626e-2
0.012, 1.631e-2
0.011, 1.637e-2
0.010, 1.643e-2
0.009, 1.649e-2
0.008, 1.654e-2
0.007, 1.660e-2
0.006, 1.665e-2
0.005, 1.671e-2
0.004, 1.677e-2
0.003, 1.683e-2
0.002, 1.688e-2
0.001, 1.694e-2
0.000, 1.700e-2
-0.001, 1.706e-2
-0.002, 1.711e-2
-0.003, 1.717e-2
-0.004, 1.723e-2
-0.005, 1.729e-2
-0.006, 1.734e-2
-0.007, 1.740e-2
-0.008, 1.746e-2
-0.009, 1.752e-2
-0.010, 1.757e-2
-0.011, 1.763e-2
-0.012, 1.769e-2
-0.013, 1.774e-2
-0.014, 1.780e-2
-0.015, 1.786e-2
-0.016, 1.791e-2
-0.017, 1.797e-2
-0.018, 1.802e-2
-0.019, 1.808e-2
-0.020, 1.813e-2
-0.021, 1.819e-2
-0.022, 1.825e-2
-0.023, 1.831e-2
-0.024, 1.836e-2
-0.025, 1.842e-2
-0.026, 1.847e-2
-0.027, 1.853e-2
-0.028, 1.859e-2
-0.029, 1.865e-2
-0.030, 1.870e-2
-0.031, 1.876e-2
-0.032, 1.882e-2
-0.033, 1.888e-2
-0.034, 1.893e-2
-0.035, 1.899e-2
-0.036, 1.904e-2
-0.037, 1.910e-2
-0.038, 1.916e-2
-0.039, 1.922e-2
-0.040, 1.927e-2
-0.041, 1.933e-2
-0.042, 1.938e-2
-0.043, 1.944e-2
-0.044, 1.950e-2
-0.045, 1.956e-2
-0.046, 1.961e-2
-0.047, 1.967e-2
-0.048, 1.972e-2
-0.049, 1.978e-2
-0.050, 1.983e-2
-0.051, 1.990e-2
-0.052, 1.995e-2
-0.053, 2.001e-2
-0.054, 2.007e-2
-0.055, 2.013e-2
-0.056, 2.018e-2
-0.057, 2.024e-2
-0.058, 2.029e-2
-0.059, 2.035e-2
-0.060, 2.041e-2
-0.061, 2.046e-2
-0.062, 2.052e-2
-0.063, 2.058e-2
-0.064, 2.063e-2
-0.065, 2.069e-2
-0.066, 2.074e-2
-0.067, 2.080e-2
-0.068, 2.086e-2
-0.069, 2.091e-2
-0.070, 2.097e-2
-0.071, 2.103e-2
-0.072, 2.108e-2
-0.073, 2.114e-2
-0.074, 2.120e-2
-0.075, 2.125e-2
-0.076, 2.131e-2
-0.077, 2.137e-2
-0.078, 2.142e-2
-0.079, 2.147e-2
-0.080, 2.153e-2
-0.081, 2.159e-2
-0.082, 2.164e-2
-0.083, 2.170e-2
-0.084, 2.175e-2
-0.085, 2.181e-2
-0.086, 2.187e-2
-0.087, 2.192e-2
-0.088, 2.198e-2
-0.089, 2.203e-2
-0.090, 2.208e-2
-0.091, 2.214e-2
-0.092, 2.220e-2
-0.093, 2.225e-2
-0.094, 2.231e-2
-0.095, 2.236e-2
-0.096, 2.242e-2
-0.097, 2.248e-2
-0.098, 2.253e-2
-0.099, 2.259e-2
-0.100, 2.264e-2
-0.101, 2.270e-2
-0.102, 2.275e-2
-0.103, 2.281e-2
-0.104, 2.286e-2
-0.105, 2.292e-2
-0.106, 2.297e-2
-0.107, 2.303e-2
-0.108, 2.308e-2
-0.109, 2.314e-2
-0.110, 2.319e-2
-0.111, 2.325e-2
-0.112, 2.330e-2
-0.113, 2.336e-2
-0.114, 2.341e-2
-0.115, 2.347e-2
-0.116, 2.353e-2
-0.117, 2.358e-2
-0.118, 2.363e-2
-0.119, 2.369e-2
-0.120, 2.374e-2
-0.121, 2.380e-2
-0.122, 2.385e-2
-0.123, 2.391e-2
-0.124, 2.396e-2
-0.125, 2.402e-2
-0.126, 2.408e-2
-0.127, 2.413e-2
-0.128, 2.418e-2
-0.129, 2.424e-2
-0.130, 2.430e-2
-0.131, 2.435e-2
-0.132, 2.440e-2
-0.133, 2.446e-2
-0.134, 2.451e-2
-0.135, 2.457e-2
-0.136, 2.462e-2
-0.137, 2.468e-2
-0.138, 2.473e-2
-0.139, 2.479e-2
-0.140, 2.484e-2
-0.141, 2.489e-2
-0.142, 2.495e-2
-0.143, 2.500e-2
-0.144, 2.506e-2
-0.145, 2.511e-2
-0.146, 2.516e-2
-0.147, 2.522e-2
-0.148, 2.527e-2
-0.149, 2.533e-2
-0.150, 2.538e-2
-0.151, 2.544e-2
-0.152, 2.549e-2
-0.153, 2.554e-2
-0.154, 2.559e-2
-0.155, 2.565e-2
-0.156, 2.570e-2
-0.157, 2.576e-2
-0.158, 2.581e-2
-0.159, 2.586e-2
-0.160, 2.591e-2
-0.161, 2.597e-2
-0.162, 2.602e-2
-0.163, 2.608e-2
-0.164, 2.612e-2
-0.165, 2.618e-2
-0.166, 2.623e-2
-0.167, 2.629e-2
-0.168, 2.634e-2
-0.169, 2.639e-2
-0.170, 2.644e-2
-0.171, 2.650e-2
-0.172, 2.655e-2
-0.173, 2.660e-2
-0.174, 2.665e-2
-0.175, 2.671e-2
-0.176, 2.676e-2
-0.177, 2.682e-2
-0.178, 2.687e-2
-0.179, 2.692e-2
-0.180, 2.697e-2
-0.181, 2.703e-2
-0.182, 2.708e-2
-0.183, 2.713e-2
-0.184, 2.718e-2
-0.185, 2.724e-2
-0.186, 2.729e-2
-0.187, 2.734e-2
-0.188, 2.739e-2
-0.189, 2.745e-2
-0.190, 2.750e-2
-0.191, 2.755e-2
-0.192, 2.760e-2
-0.193, 2.766e-2
-0.194, 2.771e-2
-0.195, 2.776e-2
-0.196, 2.781e-2
-0.197, 2.786e-2
-0.198, 2.791e-2
-0.199, 2.797e-2
-0.200, 2.801e-2
-0.201, 2.807e-2
-0.202, 2.812e-2
-0.203, 2.817e-2
-0.204, 2.822e-2
-0.205, 2.828e-2
-0.206, 2.833e-2
-0.207, 2.838e-2
-0.208, 2.843e-2
-0.209, 2.849e-2
-0.210, 2.853e-2
-0.211, 2.859e-2
-0.212, 2.863e-2
-0.213, 2.869e-2
-0.214, 2.874e-2
-0.215, 2.879e-2
-0.216, 2.884e-2
-0.217, 2.890e-2
-0.218, 2.895e-2
-0.219, 2.900e-2
-0.220, 2.905e-2
-0.221, 2.910e-2
-0.222, 2.915e-2
-0.223, 2.920e-2
-0.224, 2.925e-2
-0.225, 2.931e-2
-0.226, 2.935e-2
-0.227, 2.941e-2
-0.228, 2.945e-2
-0.229, 2.951e-2
-0.230, 2.955e-2
-0.231, 2.961e-2
-0.232, 2.966e-2
-0.233, 2.971e-2
-0.234, 2.976e-2
-0.235, 2.981e-2
-0.236, 2.986e-2
-0.237, 2.991e-2
-0.238, 2.996e-2
-0.239, 3.001e-2
-0.240, 3.006e-2
-0.241, 3.011e-2
-0.242, 3.016e-2
-0.243, 3.021e-2
-0.244, 3.026e-2
-0.245, 3.031e-2
-0.246, 3.036e-2
-0.247, 3.042e-2
-0.248, 3.046e-2
-0.249, 3.051e-2
-0.250, 3.056e-2
-0.251, 3.062e-2
-0.252, 3.066e-2
-0.253, 3.072e-2
-0.254, 3.076e-2
-0.255, 3.082e-2
-0.256, 3.086e-2
-0.257, 3.092e-2
-0.258, 3.096e-2
-0.259, 3.102e-2
-0.260, 3.107e-2
-0.261, 3.112e-2
-0.262, 3.117e-2
-0.263, 3.122e-2
-0.264, 3.127e-2
-0.265, 3.132e-2
-0.266, 3.137e-2
-0.267, 3.142e-2
-0.268, 3.146e-2
-0.269, 3.152e-2
-0.270, 3.157e-2
-0.271, 3.162e-2
-0.272, 3.166e-2
-0.273, 3.172e-2
-0.274, 3.176e-2
-0.275, 3.182e-2
-0.276, 3.186e-2
-0.277, 3.192e-2
-0.278, 3.196e-2
-0.279, 3.202e-2
-0.280, 3.206e-2
-0.281, 3.212e-2
-0.282, 3.216e-2
-0.283, 3.221e-2
-0.284, 3.226e-2
-0.285, 3.231e-2
-0.286, 3.236e-2
-0.287, 3.241e-2
-0.288, 3.246e-2
-0.289, 3.251e-2
-0.290, 3.256e-2
-0.291, 3.261e-2
-0.292, 3.265e-2
-0.293, 3.271e-2
-0.294, 3.275e-2
-0.295, 3.280e-2
-0.296, 3.285e-2
-0.297, 3.290e-2
-0.298, 3.294e-2
-0.299, 3.300e-2
-0.300, 3.304e-2
-0.301, 3.310e-2
-0.302, 3.314e-2
-0.303, 3.319e-2
-0.304, 3.324e-2
-0.305, 3.329e-2
-0.306, 3.334e-2
-0.307, 3.339e-2
-0.308, 3.344e-2
-0.309, 3.349e-2
-0.310, 3.353e-2
-0.311, 3.359e-2
-0.312, 3.363e-2
-0.313, 3.368e-2
-0.314, 3.373e-2
-0.315, 3.378e-2
-0.316, 3.382e-2
-0.317, 3.387e-2
-0.318, 3.392e-2
-0.319, 3.397e-2
-0.320, 3.401e-2
-0.321, 3.407e-2
-0.322, 3.411e-2
-0.323, 3.416e-2
-0.324, 3.420e-2
-0.325, 3.426e-2
-0.326, 3.430e-2
-0.327, 3.436e-2
-0.328, 3.440e-2
-0.329, 3.445e-2
-0.330, 3.449e-2
-0.331, 3.455e-2
-0.332, 3.459e-2
-0.333, 3.464e-2
-0.334, 3.469e-2
-0.335, 3.474e-2
-0.336, 3.478e-2
-0.337, 3.484e-2
-0.338, 3.488e-2
-0.339, 3.493e-2
-0.340, 3.498e-2
-0.341, 3.503e-2
-0.342, 3.507e-2
-0.343, 3.512e-2
-0.344, 3.517e-2
-0.345, 3.522e-2
-0.346, 3.526e-2
-0.347, 3.531e-2
-0.348, 3.536e-2
-0.349, 3.541e-2
-0.350, 3.545e-2
-0.351, 3.550e-2
-0.352, 3.555e-2
-0.353, 3.560e-2
-0.354, 3.565e-2
-0.355, 3.570e-2
-0.356, 3.575e-2
-0.357, 3.579e-2
-0.358, 3.584e-2
-0.359, 3.589e-2
-0.360, 3.593e-2
-0.361, 3.598e-2
-0.362, 3.603e-2
-0.363, 3.608e-2
-0.364, 3.612e-2
-0.365, 3.617e-2
-0.366, 3.622e-2
-0.367, 3.627e-2
-0.368, 3.631e-2
-0.369, 3.636e-2
-0.370, 3.641e-2
-0.371, 3.646e-2
-0.372, 3.650e-2
-0.373, 3.655e-2
-0.374, 3.660e-2
-0.375, 3.665e-2
-0.376, 3.669e-2
-0.377, 3.674e-2
-0.378, 3.678e-2
-0.379, 3.683e-2
-0.380, 3.688e-2
-0.381, 3.693e-2
-0.382, 3.697e-2
-0.383, 3.702e-2
-0.384, 3.707e-2
-0.385, 3.712e-2
-0.386, 3.716e-2
-0.387, 3.721e-2
-0.388, 3.725e-2
-0.389, 3.730e-2
-0.390, 3.735e-2
-0.391, 3.740e-2
-0.392, 3.744e-2
-0.393, 3.749e-2
-0.394, 3.754e-2
-0.395, 3.759e-2
-0.396, 3.763e-2
-0.397, 3.768e-2
-0.398, 3.772e-2
-0.399, 3.777e-2
-0.400, 3.781e-2
-0.401, 3.786e-2
-0.402, 3.790e-2
-0.403, 3.795e-2
-0.404, 3.800e-2
-0.405, 3.805e-2
-0.406, 3.809e-2
-0.407, 3.814e-2
-0.408, 3.818e-2
-0.409, 3.823e-2
-0.410, 3.828e-2
-0.411, 3.833e-2
-0.412, 3.837e-2
-0.413, 3.842e-2
-0.414, 3.846e-2
-0.415, 3.851e-2
-0.416, 3.856e-2
-0.417, 3.861e-2
-0.418, 3.865e-2
-0.419, 3.870e-2
-0.420, 3.874e-2
-0.421, 3.879e-2
-0.422, 3.884e-2
-0.423, 3.888e-2
-0.424, 3.893e-2
-0.425, 3.898e-2
-0.426, 3.902e-2
-0.427, 3.907e-2
-0.428, 3.911e-2
-0.429, 3.916e-2
-0.430, 3.920e-2
-0.431, 3.925e-2
-0.432, 3.930e-2
-0.433, 3.935e-2
-0.434, 3.939e-2
-0.435, 3.944e-2
-0.436, 3.948e-2
-0.437, 3.953e-2
-0.438, 3.957e-2
-0.439, 3.962e-2
-0.440, 3.966e-2
-0.441, 3.971e-2
-0.442, 3.976e-2
-0.443, 3.981e-2
-0.444, 3.985e-2
-0.445, 3.990e-2
-0.446, 3.994e-2
-0.447, 3.999e-2
-0.448, 4.003e-2
-0.449, 4.008e-2
-0.450, 4.012e-2
-0.451, 4.017e-2
-0.452, 4.022e-2
-0.453, 4.027e-2
-0.454, 4.031e-2
-0.455, 4.036e-2
-0.456, 4.040e-2
-0.457, 4.045e-2
-0.458, 4.049e-2
-0.459, 4.054e-2
-0.460, 4.058e-2
-0.461, 4.063e-2
-0.462, 4.067e-2
-0.463, 4.072e-2
-0.464, 4.076e-2
-0.465, 4.081e-2
-0.466, 4.085e-2
-0.467, 4.090e-2
-0.468, 4.095e-2
-0.469, 4.099e-2
-0.470, 4.104e-2
-0.471, 4.108e-2
-0.472, 4.113e-2
-0.473, 4.118e-2
-0.474, 4.122e-2
-0.475, 4.127e-2
-0.476, 4.131e-2
-0.477, 4.135e-2
-0.478, 4.140e-2
-0.479, 4.144e-2
-0.480, 4.149e-2
-0.481, 4.153e-2
-0.482, 4.157e-2
-0.483, 4.162e-2
-0.484, 4.167e-2
-0.485, 4.171e-2
-0.486, 4.175e-2
-0.487, 4.180e-2
-0.488, 4.184e-2
-0.489, 4.189e-2
-0.490, 4.193e-2
-0.491, 4.198e-2
-0.492, 4.202e-2
-0.493, 4.207e-2
-0.494, 4.211e-2
-0.495, 4.216e-2
-0.496, 4.220e-2
-0.497, 4.225e-2
-0.498, 4.229e-2
-0.499, 4.234e-2
-0.500, 4.238e-2
-0.501, 4.243e-2
-0.502, 4.247e-2
-0.503, 4.252e-2
-0.504, 4.256e-2
-0.505, 4.261e-2
-0.506, 4.265e-2
-0.507, 4.270e-2
-0.508, 4.274e-2
-0.509, 4.278e-2
-0.510, 4.282e-2
-0.511, 4.287e-2
-0.512, 4.292e-2
-0.513, 4.296e-2
-0.514, 4.300e-2
-0.515, 4.305e-2
-0.516, 4.310e-2
-0.517, 4.314e-2
-0.518, 4.318e-2
-0.519, 4.323e-2
-0.520, 4.327e-2
-0.521, 4.332e-2
-0.522, 4.336e-2
-0.523, 4.341e-2
-0.524, 4.345e-2
-0.525, 4.349e-2
-0.526, 4.353e-2
-0.527, 4.357e-2
-0.528, 4.360e-2
-0.529, 4.365e-2
-0.530, 4.369e-2
-0.531, 4.374e-2
-0.532, 4.378e-2
-0.533, 4.383e-2
-0.534, 4.387e-2
-0.535, 4.392e-2
-0.536, 4.396e-2
-0.537, 4.400e-2
-0.538, 4.404e-2
-0.539, 4.409e-2
-0.540, 4.412e-2
-0.541, 4.417e-2
-0.542, 4.421e-2
-0.543, 4.426e-2
-0.544, 4.430e-2
-0.545, 4.435e-2
-0.546, 4.439e-2
-0.547, 4.443e-2
-0.548, 4.448e-2
-0.549, 4.452e-2
-0.550, 4.456e-2
-0.551, 4.461e-2
-0.552, 4.465e-2
-0.553, 4.470e-2
-0.554, 4.474e-2
-0.555, 4.478e-2
-0.556, 4.483e-2
-0.557, 4.487e-2
-0.558, 4.492e-2
-0.559, 4.496e-2
-0.560, 4.500e-2
-0.561, 4.505e-2
-0.562, 4.509e-2
-0.563, 4.513e-2
-0.564, 4.518e-2
-0.565, 4.522e-2
-0.566, 4.526e-2
-0.567, 4.531e-2
-0.568, 4.535e-2
-0.569, 4.540e-2
-0.570, 4.543e-2
-0.571, 4.548e-2
-0.572, 4.552e-2
-0.573, 4.556e-2
-0.574, 4.560e-2
-0.575, 4.565e-2
-0.576, 4.569e-2
-0.577, 4.573e-2
-0.578, 4.577e-2
-0.579, 4.582e-2
-0.580, 4.586e-2
-0.581, 4.591e-2
-0.582, 4.595e-2
-0.583, 4.599e-2
-0.584, 4.603e-2
-0.585, 4.608e-2
-0.586, 4.612e-2
-0.587, 4.617e-2
-0.588, 4.620e-2
-0.589, 4.625e-2
-0.590, 4.629e-2
-0.591, 4.633e-2
-0.592, 4.638e-2
-0.593, 4.642e-2
-0.594, 4.646e-2
-0.595, 4.651e-2
-0.596, 4.654e-2
-0.597, 4.659e-2
-0.598, 4.663e-2
-0.599, 4.668e-2
-0.600, 4.672e-2
-0.601, 4.676e-2
-0.602, 4.680e-2
-0.603, 4.685e-2
-0.604, 4.689e-2
-0.605, 4.693e-2
-0.606, 4.697e-2
-0.607, 4.702e-2
-0.608, 4.705e-2
-0.609, 4.710e-2
-0.610, 4.714e-2
-0.611, 4.719e-2
-0.612, 4.723e-2
-0.613, 4.727e-2
-0.614, 4.731e-2
-0.615, 4.736e-2
-0.616, 4.739e-2
-0.617, 4.744e-2
-0.618, 4.748e-2
-0.619, 4.753e-2
-0.620, 4.757e-2
-0.621, 4.761e-2
-0.622, 4.765e-2
-0.623, 4.770e-2
-0.624, 4.774e-2
-0.625, 4.778e-2
-0.626, 4.782e-2
-0.627, 4.787e-2
-0.628, 4.791e-2
-0.629, 4.795e-2
-0.630, 4.799e-2
-0.631, 4.804e-2
-0.632, 4.808e-2
-0.633, 4.812e-2
-0.634, 4.816e-2
-0.635, 4.820e-2
-0.636, 4.824e-2
-0.637, 4.829e-2
-0.638, 4.833e-2
-0.639, 4.837e-2
-0.640, 4.841e-2
-0.641, 4.845e-2
-0.642, 4.849e-2
-0.643, 4.854e-2
-0.644, 4.858e-2
-0.645, 4.862e-2
-0.646, 4.866e-2
-0.647, 4.870e-2
-0.648, 4.874e-2
-0.649, 4.879e-2
-0.650, 4.882e-2
-0.651, 4.887e-2
-0.652, 4.891e-2
-0.653, 4.895e-2
-0.654, 4.899e-2
-0.655, 4.903e-2
-0.656, 4.907e-2
-0.657, 4.911e-2
-0.658, 4.915e-2
-0.659, 4.920e-2
-0.660, 4.924e-2
-0.661, 4.928e-2
-0.662, 4.932e-2
-0.663, 4.936e-2
-0.664, 4.940e-2
-0.665, 4.945e-2
-0.666, 4.948e-2
-0.667, 4.953e-2
-0.668, 4.956e-2
-0.669, 4.961e-2
-0.670, 4.964e-2
-0.671, 4.969e-2
-0.672, 4.972e-2
-0.673, 4.977e-2
-0.674, 4.981e-2
-0.675, 4.985e-2
-0.676, 4.989e-2
-0.677, 4.993e-2
-0.678, 4.997e-2
-0.679, 5.001e-2
-0.680, 5.006e-2
-0.681, 5.010e-2
-0.682, 5.013e-2
-0.683, 5.018e-2
-0.684, 5.022e-2
-0.685, 5.026e-2
-0.686, 5.030e-2
-0.687, 5.035e-2
-0.688, 5.040e-2
-0.689, 5.045e-2
-0.690, 5.048e-2
-0.691, 5.053e-2
-0.692, 5.057e-2
-0.693, 5.061e-2
-0.694, 5.065e-2
-0.695, 5.070e-2
-0.696, 5.073e-2
-0.697, 5.078e-2
-0.698, 5.081e-2
-0.699, 5.086e-2
-0.700, 5.090e-2
-0.701, 5.094e-2
-0.702, 5.098e-2
-0.703, 5.102e-2
-0.704, 5.106e-2
-0.705, 5.110e-2
-0.706, 5.114e-2
-0.707, 5.118e-2
-0.708, 5.122e-2
-0.709, 5.126e-2
-0.710, 5.130e-2
-0.711, 5.136e-2
-0.712, 5.140e-2
-0.713, 5.145e-2
-0.714, 5.148e-2
-0.715, 5.153e-2
-0.716, 5.156e-2
-0.717, 5.160e-2
-0.718, 5.164e-2
-0.719, 5.168e-2
-0.720, 5.172e-2
-0.721, 5.176e-2
-0.722, 5.180e-2
-0.723, 5.184e-2
-0.724, 5.188e-2
-0.725, 5.193e-2
-0.726, 5.196e-2
-0.727, 5.200e-2
-0.728, 5.204e-2
-0.729, 5.208e-2
-0.730, 5.212e-2
-0.731, 5.216e-2
-0.732, 5.220e-2
-0.733, 5.224e-2
-0.734, 5.228e-2
-0.735, 5.232e-2
-0.736, 5.235e-2
-0.737, 5.240e-2
-0.738, 5.244e-2
-0.739, 5.248e-2
-0.740, 5.252e-2
-0.741, 5.256e-2
-0.742, 5.259e-2
-0.743, 5.264e-2
-0.744, 5.268e-2
-0.745, 5.272e-2
-0.746, 5.276e-2
-0.747, 5.280e-2
-0.748, 5.284e-2
-0.749, 5.288e-2
-0.750, 5.292e-2
-0.751, 5.296e-2
-0.752, 5.300e-2
-0.753, 5.304e-2
-0.754, 5.308e-2
-0.755, 5.312e-2
-0.756, 5.317e-2
-0.757, 5.322e-2
-0.758, 5.325e-2
-0.759, 5.329e-2
-0.760, 5.333e-2
-0.761, 5.338e-2
-0.762, 5.341e-2
-0.763, 5.345e-2
-0.764, 5.348e-2
-0.765, 5.352e-2
-0.766, 5.355e-2
-0.767, 5.359e-2
-0.768, 5.362e-2
-0.769, 5.367e-2
-0.770, 5.371e-2
-0.771, 5.375e-2
-0.772, 5.379e-2
-0.773, 5.384e-2
-0.774, 5.387e-2
-0.775, 5.392e-2
-0.776, 5.395e-2
-0.777, 5.400e-2
-0.778, 5.404e-2
-0.779, 5.409e-2
-0.780, 5.412e-2
-0.781, 5.417e-2
-0.782, 5.420e-2
-0.783, 5.425e-2
-0.784, 5.429e-2
-0.785, 5.433e-2
-0.786, 5.437e-2
-0.787, 5.441e-2
-0.788, 5.445e-2
-0.789, 5.450e-2
-0.790, 5.454e-2
-0.791, 5.458e-2
-0.792, 5.462e-2
-0.793, 5.467e-2
-0.794, 5.471e-2
-0.795, 5.475e-2
-0.796, 5.479e-2
-0.797, 5.484e-2
-0.798, 5.488e-2
-0.799, 5.493e-2
