Apr. 28, 2026   10:56:28
Cyclic Voltammetry
File: c:\users\administrator\desktop\2026.4.28\hi 0.1v\1mol koh\run unsaved.txt
Data Source:  Experiment
Instrument Model:  CHI600E
Header: 
Note: 

Init E (V) = 0
High E (V) = 0.8
Low E (V) = -0.8
Init P/N = N
Scan Rate (V/s) = 0.1
Segment = 3
Sample Interval (V) = 0.001
Quiet Time (sec) = 2
Sensitivity (A/V) = 0.1

Segment 1:

Segment 2:

Segment 3:

Potential/V, Current/A

0.000, 2.850e-4
-0.001, 3.235e-4
-0.002, 3.604e-4
-0.003, 3.921e-4
-0.004, 4.275e-4
-0.005, 4.578e-4
-0.006, 4.873e-4
-0.007, 5.150e-4
-0.008, 5.431e-4
-0.009, 5.702e-4
-0.010, 5.995e-4
-0.011, 6.248e-4
-0.012, 6.532e-4
-0.013, 6.795e-4
-0.014, 7.078e-4
-0.015, 7.332e-4
-0.016, 7.604e-4
-0.017, 7.850e-4
-0.018, 8.121e-4
-0.019, 8.361e-4
-0.020, 8.637e-4
-0.021, 8.882e-4
-0.022, 9.139e-4
-0.023, 9.359e-4
-0.024, 9.617e-4
-0.025, 9.867e-4
-0.026, 1.012e-3
-0.027, 1.035e-3
-0.028, 1.060e-3
-0.029, 1.083e-3
-0.030, 1.108e-3
-0.031, 1.133e-3
-0.032, 1.157e-3
-0.033, 1.180e-3
-0.034, 1.205e-3
-0.035, 1.229e-3
-0.036, 1.252e-3
-0.037, 1.273e-3
-0.038, 1.298e-3
-0.039, 1.320e-3
-0.040, 1.345e-3
-0.041, 1.367e-3
-0.042, 1.391e-3
-0.043, 1.413e-3
-0.044, 1.436e-3
-0.045, 1.458e-3
-0.046, 1.482e-3
-0.047, 1.504e-3
-0.048, 1.529e-3
-0.049, 1.550e-3
-0.050, 1.574e-3
-0.051, 1.595e-3
-0.052, 1.619e-3
-0.053, 1.640e-3
-0.054, 1.664e-3
-0.055, 1.685e-3
-0.056, 1.709e-3
-0.057, 1.730e-3
-0.058, 1.753e-3
-0.059, 1.774e-3
-0.060, 1.798e-3
-0.061, 1.817e-3
-0.062, 1.841e-3
-0.063, 1.861e-3
-0.064, 1.884e-3
-0.065, 1.905e-3
-0.066, 1.928e-3
-0.067, 1.951e-3
-0.068, 1.974e-3
-0.069, 1.994e-3
-0.070, 2.016e-3
-0.071, 2.037e-3
-0.072, 2.060e-3
-0.073, 2.080e-3
-0.074, 2.102e-3
-0.075, 2.122e-3
-0.076, 2.145e-3
-0.077, 2.165e-3
-0.078, 2.188e-3
-0.079, 2.209e-3
-0.080, 2.230e-3
-0.081, 2.250e-3
-0.082, 2.271e-3
-0.083, 2.291e-3
-0.084, 2.313e-3
-0.085, 2.331e-3
-0.086, 2.352e-3
-0.087, 2.373e-3
-0.088, 2.394e-3
-0.089, 2.414e-3
-0.090, 2.437e-3
-0.091, 2.456e-3
-0.092, 2.476e-3
-0.093, 2.495e-3
-0.094, 2.518e-3
-0.095, 2.537e-3
-0.096, 2.559e-3
-0.097, 2.578e-3
-0.098, 2.600e-3
-0.099, 2.620e-3
-0.100, 2.640e-3
-0.101, 2.659e-3
-0.102, 2.682e-3
-0.103, 2.703e-3
-0.104, 2.724e-3
-0.105, 2.743e-3
-0.106, 2.763e-3
-0.107, 2.783e-3
-0.108, 2.805e-3
-0.109, 2.823e-3
-0.110, 2.845e-3
-0.111, 2.863e-3
-0.112, 2.884e-3
-0.113, 2.904e-3
-0.114, 2.925e-3
-0.115, 2.944e-3
-0.116, 2.966e-3
-0.117, 2.984e-3
-0.118, 3.007e-3
-0.119, 3.026e-3
-0.120, 3.047e-3
-0.121, 3.065e-3
-0.122, 3.085e-3
-0.123, 3.104e-3
-0.124, 3.125e-3
-0.125, 3.145e-3
-0.126, 3.164e-3
-0.127, 3.184e-3
-0.128, 3.205e-3
-0.129, 3.222e-3
-0.130, 3.243e-3
-0.131, 3.261e-3
-0.132, 3.282e-3
-0.133, 3.300e-3
-0.134, 3.321e-3
-0.135, 3.340e-3
-0.136, 3.362e-3
-0.137, 3.380e-3
-0.138, 3.402e-3
-0.139, 3.421e-3
-0.140, 3.441e-3
-0.141, 3.461e-3
-0.142, 3.480e-3
-0.143, 3.498e-3
-0.144, 3.517e-3
-0.145, 3.535e-3
-0.146, 3.553e-3
-0.147, 3.572e-3
-0.148, 3.592e-3
-0.149, 3.610e-3
-0.150, 3.630e-3
-0.151, 3.649e-3
-0.152, 3.668e-3
-0.153, 3.687e-3
-0.154, 3.709e-3
-0.155, 3.726e-3
-0.156, 3.747e-3
-0.157, 3.764e-3
-0.158, 3.784e-3
-0.159, 3.800e-3
-0.160, 3.821e-3
-0.161, 3.839e-3
-0.162, 3.861e-3
-0.163, 3.878e-3
-0.164, 3.900e-3
-0.165, 3.917e-3
-0.166, 3.937e-3
-0.167, 3.955e-3
-0.168, 3.974e-3
-0.169, 3.991e-3
-0.170, 4.010e-3
-0.171, 4.027e-3
-0.172, 4.047e-3
-0.173, 4.064e-3
-0.174, 4.084e-3
-0.175, 4.103e-3
-0.176, 4.122e-3
-0.177, 4.140e-3
-0.178, 4.159e-3
-0.179, 4.178e-3
-0.180, 4.198e-3
-0.181, 4.217e-3
-0.182, 4.237e-3
-0.183, 4.255e-3
-0.184, 4.275e-3
-0.185, 4.293e-3
-0.186, 4.312e-3
-0.187, 4.329e-3
-0.188, 4.348e-3
-0.189, 4.364e-3
-0.190, 4.383e-3
-0.191, 4.399e-3
-0.192, 4.420e-3
-0.193, 4.436e-3
-0.194, 4.455e-3
-0.195, 4.472e-3
-0.196, 4.492e-3
-0.197, 4.509e-3
-0.198, 4.529e-3
-0.199, 4.546e-3
-0.200, 4.566e-3
-0.201, 4.583e-3
-0.202, 4.602e-3
-0.203, 4.620e-3
-0.204, 4.641e-3
-0.205, 4.659e-3
-0.206, 4.678e-3
-0.207, 4.694e-3
-0.208, 4.713e-3
-0.209, 4.730e-3
-0.210, 4.750e-3
-0.211, 4.767e-3
-0.212, 4.787e-3
-0.213, 4.801e-3
-0.214, 4.821e-3
-0.215, 4.835e-3
-0.216, 4.853e-3
-0.217, 4.868e-3
-0.218, 4.887e-3
-0.219, 4.903e-3
-0.220, 4.924e-3
-0.221, 4.941e-3
-0.222, 4.963e-3
-0.223, 4.980e-3
-0.224, 5.000e-3
-0.225, 5.018e-3
-0.226, 5.035e-3
-0.227, 5.051e-3
-0.228, 5.070e-3
-0.229, 5.085e-3
-0.230, 5.105e-3
-0.231, 5.121e-3
-0.232, 5.141e-3
-0.233, 5.157e-3
-0.234, 5.175e-3
-0.235, 5.191e-3
-0.236, 5.209e-3
-0.237, 5.225e-3
-0.238, 5.243e-3
-0.239, 5.259e-3
-0.240, 5.276e-3
-0.241, 5.291e-3
-0.242, 5.310e-3
-0.243, 5.327e-3
-0.244, 5.347e-3
-0.245, 5.362e-3
-0.246, 5.383e-3
-0.247, 5.402e-3
-0.248, 5.421e-3
-0.249, 5.438e-3
-0.250, 5.456e-3
-0.251, 5.472e-3
-0.252, 5.491e-3
-0.253, 5.506e-3
-0.254, 5.524e-3
-0.255, 5.539e-3
-0.256, 5.559e-3
-0.257, 5.575e-3
-0.258, 5.593e-3
-0.259, 5.609e-3
-0.260, 5.626e-3
-0.261, 5.643e-3
-0.262, 5.661e-3
-0.263, 5.677e-3
-0.264, 5.694e-3
-0.265, 5.708e-3
-0.266, 5.727e-3
-0.267, 5.742e-3
-0.268, 5.760e-3
-0.269, 5.777e-3
-0.270, 5.795e-3
-0.271, 5.812e-3
-0.272, 5.831e-3
-0.273, 5.847e-3
-0.274, 5.865e-3
-0.275, 5.882e-3
-0.276, 5.900e-3
-0.277, 5.916e-3
-0.278, 5.933e-3
-0.279, 5.948e-3
-0.280, 5.966e-3
-0.281, 5.982e-3
-0.282, 6.001e-3
-0.283, 6.016e-3
-0.284, 6.033e-3
-0.285, 6.049e-3
-0.286, 6.068e-3
-0.287, 6.083e-3
-0.288, 6.101e-3
-0.289, 6.118e-3
-0.290, 6.135e-3
-0.291, 6.151e-3
-0.292, 6.169e-3
-0.293, 6.185e-3
-0.294, 6.205e-3
-0.295, 6.220e-3
-0.296, 6.237e-3
-0.297, 6.253e-3
-0.298, 6.271e-3
-0.299, 6.285e-3
-0.300, 6.303e-3
-0.301, 6.317e-3
-0.302, 6.334e-3
-0.303, 6.350e-3
-0.304, 6.367e-3
-0.305, 6.383e-3
-0.306, 6.400e-3
-0.307, 6.417e-3
-0.308, 6.435e-3
-0.309, 6.451e-3
-0.310, 6.468e-3
-0.311, 6.484e-3
-0.312, 6.500e-3
-0.313, 6.517e-3
-0.314, 6.534e-3
-0.315, 6.550e-3
-0.316, 6.568e-3
-0.317, 6.583e-3
-0.318, 6.601e-3
-0.319, 6.616e-3
-0.320, 6.635e-3
-0.321, 6.650e-3
-0.322, 6.668e-3
-0.323, 6.683e-3
-0.324, 6.701e-3
-0.325, 6.716e-3
-0.326, 6.733e-3
-0.327, 6.749e-3
-0.328, 6.767e-3
-0.329, 6.782e-3
-0.330, 6.800e-3
-0.331, 6.815e-3
-0.332, 6.833e-3
-0.333, 6.848e-3
-0.334, 6.868e-3
-0.335, 6.882e-3
-0.336, 6.900e-3
-0.337, 6.915e-3
-0.338, 6.931e-3
-0.339, 6.947e-3
-0.340, 6.962e-3
-0.341, 6.977e-3
-0.342, 6.995e-3
-0.343, 7.011e-3
-0.344, 7.027e-3
-0.345, 7.044e-3
-0.346, 7.061e-3
-0.347, 7.075e-3
-0.348, 7.095e-3
-0.349, 7.109e-3
-0.350, 7.127e-3
-0.351, 7.143e-3
-0.352, 7.159e-3
-0.353, 7.173e-3
-0.354, 7.191e-3
-0.355, 7.206e-3
-0.356, 7.223e-3
-0.357, 7.239e-3
-0.358, 7.257e-3
-0.359, 7.273e-3
-0.360, 7.290e-3
-0.361, 7.307e-3
-0.362, 7.325e-3
-0.363, 7.339e-3
-0.364, 7.356e-3
-0.365, 7.372e-3
-0.366, 7.389e-3
-0.367, 7.404e-3
-0.368, 7.420e-3
-0.369, 7.436e-3
-0.370, 7.452e-3
-0.371, 7.469e-3
-0.372, 7.485e-3
-0.373, 7.501e-3
-0.374, 7.517e-3
-0.375, 7.533e-3
-0.376, 7.550e-3
-0.377, 7.566e-3
-0.378, 7.582e-3
-0.379, 7.599e-3
-0.380, 7.616e-3
-0.381, 7.632e-3
-0.382, 7.649e-3
-0.383, 7.664e-3
-0.384, 7.680e-3
-0.385, 7.697e-3
-0.386, 7.713e-3
-0.387, 7.729e-3
-0.388, 7.744e-3
-0.389, 7.760e-3
-0.390, 7.777e-3
-0.391, 7.793e-3
-0.392, 7.810e-3
-0.393, 7.826e-3
-0.394, 7.842e-3
-0.395, 7.856e-3
-0.396, 7.874e-3
-0.397, 7.889e-3
-0.398, 7.905e-3
-0.399, 7.919e-3
-0.400, 7.936e-3
-0.401, 7.952e-3
-0.402, 7.969e-3
-0.403, 7.983e-3
-0.404, 8.003e-3
-0.405, 8.017e-3
-0.406, 8.033e-3
-0.407, 8.049e-3
-0.408, 8.065e-3
-0.409, 8.082e-3
-0.410, 8.101e-3
-0.411, 8.116e-3
-0.412, 8.133e-3
-0.413, 8.146e-3
-0.414, 8.162e-3
-0.415, 8.178e-3
-0.416, 8.195e-3
-0.417, 8.208e-3
-0.418, 8.227e-3
-0.419, 8.241e-3
-0.420, 8.258e-3
-0.421, 8.274e-3
-0.422, 8.292e-3
-0.423, 8.306e-3
-0.424, 8.324e-3
-0.425, 8.339e-3
-0.426, 8.357e-3
-0.427, 8.371e-3
-0.428, 8.388e-3
-0.429, 8.403e-3
-0.430, 8.420e-3
-0.431, 8.433e-3
-0.432, 8.452e-3
-0.433, 8.465e-3
-0.434, 8.483e-3
-0.435, 8.498e-3
-0.436, 8.515e-3
-0.437, 8.531e-3
-0.438, 8.548e-3
-0.439, 8.564e-3
-0.440, 8.580e-3
-0.441, 8.596e-3
-0.442, 8.612e-3
-0.443, 8.627e-3
-0.444, 8.642e-3
-0.445, 8.657e-3
-0.446, 8.673e-3
-0.447, 8.687e-3
-0.448, 8.705e-3
-0.449, 8.719e-3
-0.450, 8.736e-3
-0.451, 8.751e-3
-0.452, 8.768e-3
-0.453, 8.783e-3
-0.454, 8.801e-3
-0.455, 8.816e-3
-0.456, 8.832e-3
-0.457, 8.847e-3
-0.458, 8.863e-3
-0.459, 8.877e-3
-0.460, 8.893e-3
-0.461, 8.908e-3
-0.462, 8.925e-3
-0.463, 8.939e-3
-0.464, 8.957e-3
-0.465, 8.971e-3
-0.466, 8.987e-3
-0.467, 9.002e-3
-0.468, 9.019e-3
-0.469, 9.033e-3
-0.470, 9.050e-3
-0.471, 9.064e-3
-0.472, 9.081e-3
-0.473, 9.096e-3
-0.474, 9.112e-3
-0.475, 9.125e-3
-0.476, 9.139e-3
-0.477, 9.154e-3
-0.478, 9.170e-3
-0.479, 9.184e-3
-0.480, 9.200e-3
-0.481, 9.214e-3
-0.482, 9.231e-3
-0.483, 9.246e-3
-0.484, 9.263e-3
-0.485, 9.278e-3
-0.486, 9.295e-3
-0.487, 9.309e-3
-0.488, 9.328e-3
-0.489, 9.341e-3
-0.490, 9.356e-3
-0.491, 9.371e-3
-0.492, 9.386e-3
-0.493, 9.401e-3
-0.494, 9.418e-3
-0.495, 9.432e-3
-0.496, 9.448e-3
-0.497, 9.462e-3
-0.498, 9.479e-3
-0.499, 9.493e-3
-0.500, 9.509e-3
-0.501, 9.523e-3
-0.502, 9.540e-3
-0.503, 9.554e-3
-0.504, 9.569e-3
-0.505, 9.585e-3
-0.506, 9.600e-3
-0.507, 9.614e-3
-0.508, 9.629e-3
-0.509, 9.644e-3
-0.510, 9.660e-3
-0.511, 9.673e-3
-0.512, 9.691e-3
-0.513, 9.706e-3
-0.514, 9.722e-3
-0.515, 9.736e-3
-0.516, 9.752e-3
-0.517, 9.766e-3
-0.518, 9.781e-3
-0.519, 9.795e-3
-0.520, 9.809e-3
-0.521, 9.824e-3
-0.522, 9.839e-3
-0.523, 9.854e-3
-0.524, 9.870e-3
-0.525, 9.884e-3
-0.526, 9.899e-3
-0.527, 9.913e-3
-0.528, 9.928e-3
-0.529, 9.942e-3
-0.530, 9.957e-3
-0.531, 9.972e-3
-0.532, 9.987e-3
-0.533, 1.000e-2
-0.534, 1.002e-2
-0.535, 1.003e-2
-0.536, 1.005e-2
-0.537, 1.006e-2
-0.538, 1.008e-2
-0.539, 1.009e-2
-0.540, 1.011e-2
-0.541, 1.012e-2
-0.542, 1.013e-2
-0.543, 1.015e-2
-0.544, 1.016e-2
-0.545, 1.018e-2
-0.546, 1.019e-2
-0.547, 1.021e-2
-0.548, 1.022e-2
-0.549, 1.023e-2
-0.550, 1.025e-2
-0.551, 1.026e-2
-0.552, 1.028e-2
-0.553, 1.029e-2
-0.554, 1.031e-2
-0.555, 1.032e-2
-0.556, 1.034e-2
-0.557, 1.035e-2
-0.558, 1.036e-2
-0.559, 1.038e-2
-0.560, 1.039e-2
-0.561, 1.040e-2
-0.562, 1.042e-2
-0.563, 1.043e-2
-0.564, 1.045e-2
-0.565, 1.046e-2
-0.566, 1.048e-2
-0.567, 1.049e-2
-0.568, 1.051e-2
-0.569, 1.052e-2
-0.570, 1.054e-2
-0.571, 1.055e-2
-0.572, 1.057e-2
-0.573, 1.058e-2
-0.574, 1.059e-2
-0.575, 1.061e-2
-0.576, 1.062e-2
-0.577, 1.064e-2
-0.578, 1.065e-2
-0.579, 1.066e-2
-0.580, 1.068e-2
-0.581, 1.069e-2
-0.582, 1.071e-2
-0.583, 1.072e-2
-0.584, 1.074e-2
-0.585, 1.075e-2
-0.586, 1.077e-2
-0.587, 1.078e-2
-0.588, 1.080e-2
-0.589, 1.081e-2
-0.590, 1.083e-2
-0.591, 1.084e-2
-0.592, 1.085e-2
-0.593, 1.087e-2
-0.594, 1.088e-2
-0.595, 1.089e-2
-0.596, 1.091e-2
-0.597, 1.092e-2
-0.598, 1.094e-2
-0.599, 1.095e-2
-0.600, 1.097e-2
-0.601, 1.098e-2
-0.602, 1.100e-2
-0.603, 1.101e-2
-0.604, 1.102e-2
-0.605, 1.104e-2
-0.606, 1.105e-2
-0.607, 1.107e-2
-0.608, 1.108e-2
-0.609, 1.109e-2
-0.610, 1.111e-2
-0.611, 1.112e-2
-0.612, 1.114e-2
-0.613, 1.115e-2
-0.614, 1.116e-2
-0.615, 1.118e-2
-0.616, 1.119e-2
-0.617, 1.121e-2
-0.618, 1.122e-2
-0.619, 1.124e-2
-0.620, 1.125e-2
-0.621, 1.126e-2
-0.622, 1.128e-2
-0.623, 1.129e-2
-0.624, 1.130e-2
-0.625, 1.132e-2
-0.626, 1.133e-2
-0.627, 1.135e-2
-0.628, 1.136e-2
-0.629, 1.137e-2
-0.630, 1.139e-2
-0.631, 1.140e-2
-0.632, 1.142e-2
-0.633, 1.143e-2
-0.634, 1.144e-2
-0.635, 1.146e-2
-0.636, 1.147e-2
-0.637, 1.148e-2
-0.638, 1.150e-2
-0.639, 1.151e-2
-0.640, 1.153e-2
-0.641, 1.154e-2
-0.642, 1.156e-2
-0.643, 1.157e-2
-0.644, 1.158e-2
-0.645, 1.160e-2
-0.646, 1.161e-2
-0.647, 1.163e-2
-0.648, 1.164e-2
-0.649, 1.165e-2
-0.650, 1.167e-2
-0.651, 1.168e-2
-0.652, 1.169e-2
-0.653, 1.171e-2
-0.654, 1.172e-2
-0.655, 1.173e-2
-0.656, 1.175e-2
-0.657, 1.176e-2
-0.658, 1.178e-2
-0.659, 1.179e-2
-0.660, 1.181e-2
-0.661, 1.182e-2
-0.662, 1.184e-2
-0.663, 1.185e-2
-0.664, 1.186e-2
-0.665, 1.188e-2
-0.666, 1.189e-2
-0.667, 1.190e-2
-0.668, 1.192e-2
-0.669, 1.193e-2
-0.670, 1.194e-2
-0.671, 1.196e-2
-0.672, 1.197e-2
-0.673, 1.198e-2
-0.674, 1.200e-2
-0.675, 1.201e-2
-0.676, 1.203e-2
-0.677, 1.204e-2
-0.678, 1.205e-2
-0.679, 1.206e-2
-0.680, 1.208e-2
-0.681, 1.209e-2
-0.682, 1.210e-2
-0.683, 1.211e-2
-0.684, 1.212e-2
-0.685, 1.213e-2
-0.686, 1.215e-2
-0.687, 1.216e-2
-0.688, 1.217e-2
-0.689, 1.218e-2
-0.690, 1.220e-2
-0.691, 1.221e-2
-0.692, 1.223e-2
-0.693, 1.224e-2
-0.694, 1.226e-2
-0.695, 1.227e-2
-0.696, 1.229e-2
-0.697, 1.230e-2
-0.698, 1.231e-2
-0.699, 1.232e-2
-0.700, 1.234e-2
-0.701, 1.235e-2
-0.702, 1.236e-2
-0.703, 1.238e-2
-0.704, 1.239e-2
-0.705, 1.240e-2
-0.706, 1.242e-2
-0.707, 1.243e-2
-0.708, 1.245e-2
-0.709, 1.246e-2
-0.710, 1.247e-2
-0.711, 1.249e-2
-0.712, 1.250e-2
-0.713, 1.252e-2
-0.714, 1.253e-2
-0.715, 1.254e-2
-0.716, 1.256e-2
-0.717, 1.257e-2
-0.718, 1.259e-2
-0.719, 1.260e-2
-0.720, 1.261e-2
-0.721, 1.262e-2
-0.722, 1.264e-2
-0.723, 1.265e-2
-0.724, 1.267e-2
-0.725, 1.268e-2
-0.726, 1.269e-2
-0.727, 1.271e-2
-0.728, 1.272e-2
-0.729, 1.273e-2
-0.730, 1.275e-2
-0.731, 1.276e-2
-0.732, 1.278e-2
-0.733, 1.279e-2
-0.734, 1.280e-2
-0.735, 1.281e-2
-0.736, 1.283e-2
-0.737, 1.284e-2
-0.738, 1.285e-2
-0.739, 1.287e-2
-0.740, 1.288e-2
-0.741, 1.289e-2
-0.742, 1.291e-2
-0.743, 1.292e-2
-0.744, 1.293e-2
-0.745, 1.295e-2
-0.746, 1.296e-2
-0.747, 1.297e-2
-0.748, 1.299e-2
-0.749, 1.300e-2
-0.750, 1.302e-2
-0.751, 1.303e-2
-0.752, 1.304e-2
-0.753, 1.305e-2
-0.754, 1.307e-2
-0.755, 1.308e-2
-0.756, 1.310e-2
-0.757, 1.311e-2
-0.758, 1.312e-2
-0.759, 1.313e-2
-0.760, 1.315e-2
-0.761, 1.316e-2
-0.762, 1.318e-2
-0.763, 1.319e-2
-0.764, 1.320e-2
-0.765, 1.322e-2
-0.766, 1.323e-2
-0.767, 1.325e-2
-0.768, 1.326e-2
-0.769, 1.327e-2
-0.770, 1.329e-2
-0.771, 1.330e-2
-0.772, 1.331e-2
-0.773, 1.332e-2
-0.774, 1.334e-2
-0.775, 1.335e-2
-0.776, 1.337e-2
-0.777, 1.338e-2
-0.778, 1.339e-2
-0.779, 1.340e-2
-0.780, 1.342e-2
-0.781, 1.343e-2
-0.782, 1.345e-2
-0.783, 1.346e-2
-0.784, 1.347e-2
-0.785, 1.349e-2
-0.786, 1.350e-2
-0.787, 1.351e-2
-0.788, 1.353e-2
-0.789, 1.354e-2
-0.790, 1.356e-2
-0.791, 1.357e-2
-0.792, 1.358e-2
-0.793, 1.359e-2
-0.794, 1.361e-2
-0.795, 1.362e-2
-0.796, 1.363e-2
-0.797, 1.365e-2
-0.798, 1.366e-2
-0.799, 1.367e-2
-0.800, 1.366e-2
-0.799, 1.358e-2
-0.798, 1.351e-2
-0.797, 1.344e-2
-0.796, 1.337e-2
-0.795, 1.331e-2
-0.794, 1.326e-2
-0.793, 1.320e-2
-0.792, 1.314e-2
-0.791, 1.309e-2
-0.790, 1.303e-2
-0.789, 1.298e-2
-0.788, 1.293e-2
-0.787, 1.288e-2
-0.786, 1.283e-2
-0.785, 1.278e-2
-0.784, 1.274e-2
-0.783, 1.269e-2
-0.782, 1.264e-2
-0.781, 1.259e-2
-0.780, 1.255e-2
-0.779, 1.250e-2
-0.778, 1.246e-2
-0.777, 1.241e-2
-0.776, 1.237e-2
-0.775, 1.232e-2
-0.774, 1.228e-2
-0.773, 1.224e-2
-0.772, 1.219e-2
-0.771, 1.215e-2
-0.770, 1.211e-2
-0.769, 1.208e-2
-0.768, 1.204e-2
-0.767, 1.200e-2
-0.766, 1.196e-2
-0.765, 1.192e-2
-0.764, 1.188e-2
-0.763, 1.184e-2
-0.762, 1.180e-2
-0.761, 1.176e-2
-0.760, 1.172e-2
-0.759, 1.168e-2
-0.758, 1.164e-2
-0.757, 1.160e-2
-0.756, 1.156e-2
-0.755, 1.152e-2
-0.754, 1.149e-2
-0.753, 1.145e-2
-0.752, 1.141e-2
-0.751, 1.137e-2
-0.750, 1.134e-2
-0.749, 1.130e-2
-0.748, 1.126e-2
-0.747, 1.123e-2
-0.746, 1.119e-2
-0.745, 1.116e-2
-0.744, 1.112e-2
-0.743, 1.108e-2
-0.742, 1.105e-2
-0.741, 1.101e-2
-0.740, 1.097e-2
-0.739, 1.094e-2
-0.738, 1.090e-2
-0.737, 1.087e-2
-0.736, 1.084e-2
-0.735, 1.080e-2
-0.734, 1.077e-2
-0.733, 1.073e-2
-0.732, 1.070e-2
-0.731, 1.066e-2
-0.730, 1.063e-2
-0.729, 1.059e-2
-0.728, 1.056e-2
-0.727, 1.053e-2
-0.726, 1.049e-2
-0.725, 1.046e-2
-0.724, 1.043e-2
-0.723, 1.039e-2
-0.722, 1.036e-2
-0.721, 1.033e-2
-0.720, 1.030e-2
-0.719, 1.026e-2
-0.718, 1.023e-2
-0.717, 1.020e-2
-0.716, 1.017e-2
-0.715, 1.013e-2
-0.714, 1.010e-2
-0.713, 1.007e-2
-0.712, 1.004e-2
-0.711, 1.001e-2
-0.710, 9.979e-3
-0.709, 9.945e-3
-0.708, 9.914e-3
-0.707, 9.884e-3
-0.706, 9.854e-3
-0.705, 9.821e-3
-0.704, 9.791e-3
-0.703, 9.760e-3
-0.702, 9.731e-3
-0.701, 9.698e-3
-0.700, 9.669e-3
-0.699, 9.638e-3
-0.698, 9.607e-3
-0.697, 9.577e-3
-0.696, 9.548e-3
-0.695, 9.516e-3
-0.694, 9.486e-3
-0.693, 9.455e-3
-0.692, 9.426e-3
-0.691, 9.395e-3
-0.690, 9.366e-3
-0.689, 9.337e-3
-0.688, 9.307e-3
-0.687, 9.276e-3
-0.686, 9.247e-3
-0.685, 9.216e-3
-0.684, 9.186e-3
-0.683, 9.158e-3
-0.682, 9.129e-3
-0.681, 9.101e-3
-0.680, 9.074e-3
-0.679, 9.045e-3
-0.678, 9.017e-3
-0.677, 8.988e-3
-0.676, 8.960e-3
-0.675, 8.931e-3
-0.674, 8.903e-3
-0.673, 8.875e-3
-0.672, 8.847e-3
-0.671, 8.818e-3
-0.670, 8.788e-3
-0.669, 8.761e-3
-0.668, 8.731e-3
-0.667, 8.703e-3
-0.666, 8.675e-3
-0.665, 8.649e-3
-0.664, 8.622e-3
-0.663, 8.593e-3
-0.662, 8.567e-3
-0.661, 8.537e-3
-0.660, 8.510e-3
-0.659, 8.483e-3
-0.658, 8.455e-3
-0.657, 8.427e-3
-0.656, 8.401e-3
-0.655, 8.374e-3
-0.654, 8.346e-3
-0.653, 8.318e-3
-0.652, 8.291e-3
-0.651, 8.264e-3
-0.650, 8.238e-3
-0.649, 8.209e-3
-0.648, 8.185e-3
-0.647, 8.156e-3
-0.646, 8.130e-3
-0.645, 8.104e-3
-0.644, 8.078e-3
-0.643, 8.052e-3
-0.642, 8.025e-3
-0.641, 7.998e-3
-0.640, 7.972e-3
-0.639, 7.945e-3
-0.638, 7.919e-3
-0.637, 7.893e-3
-0.636, 7.869e-3
-0.635, 7.844e-3
-0.634, 7.819e-3
-0.633, 7.791e-3
-0.632, 7.766e-3
-0.631, 7.740e-3
-0.630, 7.716e-3
-0.629, 7.689e-3
-0.628, 7.665e-3
-0.627, 7.637e-3
-0.626, 7.613e-3
-0.625, 7.587e-3
-0.624, 7.562e-3
-0.623, 7.536e-3
-0.622, 7.512e-3
-0.621, 7.486e-3
-0.620, 7.461e-3
-0.619, 7.435e-3
-0.618, 7.412e-3
-0.617, 7.387e-3
-0.616, 7.364e-3
-0.615, 7.338e-3
-0.614, 7.312e-3
-0.613, 7.285e-3
-0.612, 7.261e-3
-0.611, 7.235e-3
-0.610, 7.212e-3
-0.609, 7.188e-3
-0.608, 7.163e-3
-0.607, 7.138e-3
-0.606, 7.116e-3
-0.605, 7.091e-3
-0.604, 7.068e-3
-0.603, 7.042e-3
-0.602, 7.019e-3
-0.601, 6.994e-3
-0.600, 6.971e-3
-0.599, 6.948e-3
-0.598, 6.927e-3
-0.597, 6.902e-3
-0.596, 6.880e-3
-0.595, 6.855e-3
-0.594, 6.830e-3
-0.593, 6.805e-3
-0.592, 6.782e-3
-0.591, 6.757e-3
-0.590, 6.737e-3
-0.589, 6.711e-3
-0.588, 6.688e-3
-0.587, 6.665e-3
-0.586, 6.643e-3
-0.585, 6.618e-3
-0.584, 6.597e-3
-0.583, 6.571e-3
-0.582, 6.549e-3
-0.581, 6.524e-3
-0.580, 6.502e-3
-0.579, 6.479e-3
-0.578, 6.457e-3
-0.577, 6.434e-3
-0.576, 6.411e-3
-0.575, 6.388e-3
-0.574, 6.364e-3
-0.573, 6.342e-3
-0.572, 6.320e-3
-0.571, 6.297e-3
-0.570, 6.277e-3
-0.569, 6.254e-3
-0.568, 6.232e-3
-0.567, 6.209e-3
-0.566, 6.187e-3
-0.565, 6.163e-3
-0.564, 6.142e-3
-0.563, 6.119e-3
-0.562, 6.097e-3
-0.561, 6.072e-3
-0.560, 6.052e-3
-0.559, 6.028e-3
-0.558, 6.005e-3
-0.557, 5.984e-3
-0.556, 5.961e-3
-0.555, 5.939e-3
-0.554, 5.919e-3
-0.553, 5.897e-3
-0.552, 5.875e-3
-0.551, 5.853e-3
-0.550, 5.830e-3
-0.549, 5.808e-3
-0.548, 5.786e-3
-0.547, 5.763e-3
-0.546, 5.741e-3
-0.545, 5.721e-3
-0.544, 5.701e-3
-0.543, 5.680e-3
-0.542, 5.658e-3
-0.541, 5.637e-3
-0.540, 5.617e-3
-0.539, 5.593e-3
-0.538, 5.573e-3
-0.537, 5.549e-3
-0.536, 5.529e-3
-0.535, 5.506e-3
-0.534, 5.486e-3
-0.533, 5.465e-3
-0.532, 5.445e-3
-0.531, 5.422e-3
-0.530, 5.401e-3
-0.529, 5.379e-3
-0.528, 5.358e-3
-0.527, 5.335e-3
-0.526, 5.315e-3
-0.525, 5.292e-3
-0.524, 5.272e-3
-0.523, 5.250e-3
-0.522, 5.231e-3
-0.521, 5.209e-3
-0.520, 5.191e-3
-0.519, 5.168e-3
-0.518, 5.148e-3
-0.517, 5.126e-3
-0.516, 5.106e-3
-0.515, 5.085e-3
-0.514, 5.064e-3
-0.513, 5.043e-3
-0.512, 5.023e-3
-0.511, 5.002e-3
-0.510, 4.981e-3
-0.509, 4.961e-3
-0.508, 4.941e-3
-0.507, 4.919e-3
-0.506, 4.899e-3
-0.505, 4.877e-3
-0.504, 4.857e-3
-0.503, 4.836e-3
-0.502, 4.817e-3
-0.501, 4.795e-3
-0.500, 4.776e-3
-0.499, 4.757e-3
-0.498, 4.736e-3
-0.497, 4.717e-3
-0.496, 4.697e-3
-0.495, 4.677e-3
-0.494, 4.657e-3
-0.493, 4.635e-3
-0.492, 4.615e-3
-0.491, 4.594e-3
-0.490, 4.575e-3
-0.489, 4.553e-3
-0.488, 4.534e-3
-0.487, 4.512e-3
-0.486, 4.493e-3
-0.485, 4.473e-3
-0.484, 4.454e-3
-0.483, 4.434e-3
-0.482, 4.413e-3
-0.481, 4.394e-3
-0.480, 4.375e-3
-0.479, 4.355e-3
-0.478, 4.337e-3
-0.477, 4.317e-3
-0.476, 4.298e-3
-0.475, 4.277e-3
-0.474, 4.258e-3
-0.473, 4.237e-3
-0.472, 4.218e-3
-0.471, 4.197e-3
-0.470, 4.179e-3
-0.469, 4.157e-3
-0.468, 4.138e-3
-0.467, 4.118e-3
-0.466, 4.099e-3
-0.465, 4.078e-3
-0.464, 4.059e-3
-0.463, 4.038e-3
-0.462, 4.020e-3
-0.461, 4.000e-3
-0.460, 3.982e-3
-0.459, 3.964e-3
-0.458, 3.946e-3
-0.457, 3.925e-3
-0.456, 3.907e-3
-0.455, 3.886e-3
-0.454, 3.866e-3
-0.453, 3.847e-3
-0.452, 3.827e-3
-0.451, 3.809e-3
-0.450, 3.790e-3
-0.449, 3.771e-3
-0.448, 3.753e-3
-0.447, 3.734e-3
-0.446, 3.715e-3
-0.445, 3.697e-3
-0.444, 3.677e-3
-0.443, 3.658e-3
-0.442, 3.640e-3
-0.441, 3.620e-3
-0.440, 3.604e-3
-0.439, 3.583e-3
-0.438, 3.565e-3
-0.437, 3.548e-3
-0.436, 3.529e-3
-0.435, 3.512e-3
-0.434, 3.494e-3
-0.433, 3.474e-3
-0.432, 3.456e-3
-0.431, 3.436e-3
-0.430, 3.417e-3
-0.429, 3.397e-3
-0.428, 3.377e-3
-0.427, 3.359e-3
-0.426, 3.340e-3
-0.425, 3.322e-3
-0.424, 3.305e-3
-0.423, 3.286e-3
-0.422, 3.268e-3
-0.421, 3.249e-3
-0.420, 3.232e-3
-0.419, 3.213e-3
-0.418, 3.197e-3
-0.417, 3.178e-3
-0.416, 3.160e-3
-0.415, 3.141e-3
-0.414, 3.124e-3
-0.413, 3.105e-3
-0.412, 3.087e-3
-0.411, 3.069e-3
-0.410, 3.051e-3
-0.409, 3.031e-3
-0.408, 3.014e-3
-0.407, 2.995e-3
-0.406, 2.978e-3
-0.405, 2.957e-3
-0.404, 2.941e-3
-0.403, 2.921e-3
-0.402, 2.904e-3
-0.401, 2.884e-3
-0.400, 2.868e-3
-0.399, 2.852e-3
-0.398, 2.835e-3
-0.397, 2.817e-3
-0.396, 2.799e-3
-0.395, 2.780e-3
-0.394, 2.763e-3
-0.393, 2.745e-3
-0.392, 2.729e-3
-0.391, 2.710e-3
-0.390, 2.692e-3
-0.389, 2.674e-3
-0.388, 2.657e-3
-0.387, 2.638e-3
-0.386, 2.621e-3
-0.385, 2.603e-3
-0.384, 2.586e-3
-0.383, 2.568e-3
-0.382, 2.551e-3
-0.381, 2.534e-3
-0.380, 2.517e-3
-0.379, 2.498e-3
-0.378, 2.483e-3
-0.377, 2.462e-3
-0.376, 2.447e-3
-0.375, 2.428e-3
-0.374, 2.412e-3
-0.373, 2.395e-3
-0.372, 2.380e-3
-0.371, 2.362e-3
-0.370, 2.345e-3
-0.369, 2.328e-3
-0.368, 2.312e-3
-0.367, 2.295e-3
-0.366, 2.279e-3
-0.365, 2.262e-3
-0.364, 2.245e-3
-0.363, 2.229e-3
-0.362, 2.213e-3
-0.361, 2.194e-3
-0.360, 2.178e-3
-0.359, 2.161e-3
-0.358, 2.142e-3
-0.357, 2.124e-3
-0.356, 2.107e-3
-0.355, 2.091e-3
-0.354, 2.074e-3
-0.353, 2.058e-3
-0.352, 2.041e-3
-0.351, 2.023e-3
-0.350, 2.007e-3
-0.349, 1.990e-3
-0.348, 1.974e-3
-0.347, 1.955e-3
-0.346, 1.939e-3
-0.345, 1.920e-3
-0.344, 1.905e-3
-0.343, 1.887e-3
-0.342, 1.872e-3
-0.341, 1.854e-3
-0.340, 1.839e-3
-0.339, 1.821e-3
-0.338, 1.805e-3
-0.337, 1.788e-3
-0.336, 1.772e-3
-0.335, 1.755e-3
-0.334, 1.739e-3
-0.333, 1.722e-3
-0.332, 1.706e-3
-0.331, 1.688e-3
-0.330, 1.673e-3
-0.329, 1.655e-3
-0.328, 1.639e-3
-0.327, 1.622e-3
-0.326, 1.606e-3
-0.325, 1.589e-3
-0.324, 1.574e-3
-0.323, 1.556e-3
-0.322, 1.540e-3
-0.321, 1.524e-3
-0.320, 1.507e-3
-0.319, 1.490e-3
-0.318, 1.473e-3
-0.317, 1.457e-3
-0.316, 1.441e-3
-0.315, 1.424e-3
-0.314, 1.409e-3
-0.313, 1.391e-3
-0.312, 1.379e-3
-0.311, 1.362e-3
-0.310, 1.345e-3
-0.309, 1.328e-3
-0.308, 1.312e-3
-0.307, 1.294e-3
-0.306, 1.279e-3
-0.305, 1.263e-3
-0.304, 1.248e-3
-0.303, 1.231e-3
-0.302, 1.217e-3
-0.301, 1.199e-3
-0.300, 1.183e-3
-0.299, 1.166e-3
-0.298, 1.151e-3
-0.297, 1.134e-3
-0.296, 1.120e-3
-0.295, 1.104e-3
-0.294, 1.088e-3
-0.293, 1.071e-3
-0.292, 1.056e-3
-0.291, 1.039e-3
-0.290, 1.024e-3
-0.289, 1.008e-3
-0.288, 9.921e-4
-0.287, 9.755e-4
-0.286, 9.604e-4
-0.285, 9.438e-4
-0.284, 9.291e-4
-0.283, 9.123e-4
-0.282, 8.976e-4
-0.281, 8.820e-4
-0.280, 8.666e-4
-0.279, 8.506e-4
-0.278, 8.342e-4
-0.277, 8.182e-4
-0.276, 8.023e-4
-0.275, 7.860e-4
-0.274, 7.715e-4
-0.273, 7.539e-4
-0.272, 7.387e-4
-0.271, 7.225e-4
-0.270, 7.078e-4
-0.269, 6.910e-4
-0.268, 6.759e-4
-0.267, 6.603e-4
-0.266, 6.451e-4
-0.265, 6.277e-4
-0.264, 6.133e-4
-0.263, 5.971e-4
-0.262, 5.815e-4
-0.261, 5.669e-4
-0.260, 5.516e-4
-0.259, 5.354e-4
-0.258, 5.201e-4
-0.257, 5.045e-4
-0.256, 4.901e-4
-0.255, 4.741e-4
-0.254, 4.588e-4
-0.253, 4.430e-4
-0.252, 4.280e-4
-0.251, 4.115e-4
-0.250, 3.957e-4
-0.249, 3.790e-4
-0.248, 3.634e-4
-0.247, 3.483e-4
-0.246, 3.323e-4
-0.245, 3.177e-4
-0.244, 3.018e-4
-0.243, 2.875e-4
-0.242, 2.720e-4
-0.241, 2.565e-4
-0.240, 2.429e-4
-0.239, 2.278e-4
-0.238, 2.118e-4
-0.237, 1.966e-4
-0.236, 1.812e-4
-0.235, 1.664e-4
-0.234, 1.526e-4
-0.233, 1.383e-4
-0.232, 1.242e-4
-0.231, 1.086e-4
-0.230, 9.425e-5
-0.229, 7.953e-5
-0.228, 6.509e-5
-0.227, 4.880e-5
-0.226, 3.525e-5
-0.225, 1.973e-5
-0.224, 5.498e-6
-0.223, -1.139e-5
-0.222, -2.612e-5
-0.221, -4.183e-5
-0.220, -5.685e-5
-0.219, -7.216e-5
-0.218, -8.463e-5
-0.217, -1.005e-4
-0.216, -1.143e-4
-0.215, -1.296e-4
-0.214, -1.443e-4
-0.213, -1.598e-4
-0.212, -1.738e-4
-0.211, -1.889e-4
-0.210, -2.029e-4
-0.209, -2.191e-4
-0.208, -2.304e-4
-0.207, -2.474e-4
-0.206, -2.612e-4
-0.205, -2.774e-4
-0.204, -2.910e-4
-0.203, -3.073e-4
-0.202, -3.211e-4
-0.201, -3.367e-4
-0.200, -3.478e-4
-0.199, -3.646e-4
-0.198, -3.782e-4
-0.197, -3.933e-4
-0.196, -4.073e-4
-0.195, -4.221e-4
-0.194, -4.359e-4
-0.193, -4.529e-4
-0.192, -4.654e-4
-0.191, -4.825e-4
-0.190, -4.956e-4
-0.189, -5.115e-4
-0.188, -5.259e-4
-0.187, -5.410e-4
-0.186, -5.531e-4
-0.185, -5.693e-4
-0.184, -5.820e-4
-0.183, -5.968e-4
-0.182, -6.113e-4
-0.181, -6.272e-4
-0.180, -6.402e-4
-0.179, -6.561e-4
-0.178, -6.691e-4
-0.177, -6.841e-4
-0.176, -6.985e-4
-0.175, -7.129e-4
-0.174, -7.260e-4
-0.173, -7.410e-4
-0.172, -7.542e-4
-0.171, -7.683e-4
-0.170, -7.830e-4
-0.169, -7.975e-4
-0.168, -8.107e-4
-0.167, -8.258e-4
-0.166, -8.383e-4
-0.165, -8.550e-4
-0.164, -8.661e-4
-0.163, -8.809e-4
-0.162, -8.949e-4
-0.161, -9.100e-4
-0.160, -9.235e-4
-0.159, -9.376e-4
-0.158, -9.514e-4
-0.157, -9.668e-4
-0.156, -9.800e-4
-0.155, -9.941e-4
-0.154, -1.008e-3
-0.153, -1.023e-3
-0.152, -1.035e-3
-0.151, -1.051e-3
-0.150, -1.063e-3
-0.149, -1.080e-3
-0.148, -1.092e-3
-0.147, -1.107e-3
-0.146, -1.120e-3
-0.145, -1.136e-3
-0.144, -1.147e-3
-0.143, -1.162e-3
-0.142, -1.176e-3
-0.141, -1.190e-3
-0.140, -1.204e-3
-0.139, -1.218e-3
-0.138, -1.231e-3
-0.137, -1.246e-3
-0.136, -1.259e-3
-0.135, -1.274e-3
-0.134, -1.287e-3
-0.133, -1.302e-3
-0.132, -1.315e-3
-0.131, -1.329e-3
-0.130, -1.343e-3
-0.129, -1.358e-3
-0.128, -1.372e-3
-0.127, -1.385e-3
-0.126, -1.398e-3
-0.125, -1.413e-3
-0.124, -1.426e-3
-0.123, -1.440e-3
-0.122, -1.453e-3
-0.121, -1.468e-3
-0.120, -1.479e-3
-0.119, -1.494e-3
-0.118, -1.506e-3
-0.117, -1.519e-3
-0.116, -1.531e-3
-0.115, -1.546e-3
-0.114, -1.559e-3
-0.113, -1.571e-3
-0.112, -1.583e-3
-0.111, -1.598e-3
-0.110, -1.612e-3
-0.109, -1.626e-3
-0.108, -1.639e-3
-0.107, -1.653e-3
-0.106, -1.665e-3
-0.105, -1.679e-3
-0.104, -1.693e-3
-0.103, -1.708e-3
-0.102, -1.722e-3
-0.101, -1.736e-3
-0.100, -1.748e-3
-0.099, -1.762e-3
-0.098, -1.775e-3
-0.097, -1.789e-3
-0.096, -1.801e-3
-0.095, -1.816e-3
-0.094, -1.828e-3
-0.093, -1.842e-3
-0.092, -1.855e-3
-0.091, -1.869e-3
-0.090, -1.883e-3
-0.089, -1.896e-3
-0.088, -1.910e-3
-0.087, -1.925e-3
-0.086, -1.937e-3
-0.085, -1.952e-3
-0.084, -1.964e-3
-0.083, -1.979e-3
-0.082, -1.991e-3
-0.081, -2.006e-3
-0.080, -2.018e-3
-0.079, -2.033e-3
-0.078, -2.044e-3
-0.077, -2.058e-3
-0.076, -2.072e-3
-0.075, -2.085e-3
-0.074, -2.097e-3
-0.073, -2.111e-3
-0.072, -2.125e-3
-0.071, -2.138e-3
-0.070, -2.151e-3
-0.069, -2.165e-3
-0.068, -2.177e-3
-0.067, -2.192e-3
-0.066, -2.204e-3
-0.065, -2.218e-3
-0.064, -2.231e-3
-0.063, -2.244e-3
-0.062, -2.258e-3
-0.061, -2.271e-3
-0.060, -2.284e-3
-0.059, -2.299e-3
-0.058, -2.312e-3
-0.057, -2.326e-3
-0.056, -2.339e-3
-0.055, -2.353e-3
-0.054, -2.365e-3
-0.053, -2.379e-3
-0.052, -2.392e-3
-0.051, -2.406e-3
-0.050, -2.420e-3
-0.049, -2.433e-3
-0.048, -2.446e-3
-0.047, -2.460e-3
-0.046, -2.471e-3
-0.045, -2.485e-3
-0.044, -2.498e-3
-0.043, -2.511e-3
-0.042, -2.524e-3
-0.041, -2.538e-3
-0.040, -2.550e-3
-0.039, -2.565e-3
-0.038, -2.578e-3
-0.037, -2.592e-3
-0.036, -2.603e-3
-0.035, -2.617e-3
-0.034, -2.630e-3
-0.033, -2.644e-3
-0.032, -2.656e-3
-0.031, -2.671e-3
-0.030, -2.683e-3
-0.029, -2.697e-3
-0.028, -2.711e-3
-0.027, -2.724e-3
-0.026, -2.736e-3
-0.025, -2.751e-3
-0.024, -2.762e-3
-0.023, -2.776e-3
-0.022, -2.789e-3
-0.021, -2.802e-3
-0.020, -2.815e-3
-0.019, -2.831e-3
-0.018, -2.842e-3
-0.017, -2.856e-3
-0.016, -2.868e-3
-0.015, -2.883e-3
-0.014, -2.894e-3
-0.013, -2.906e-3
-0.012, -2.919e-3
-0.011, -2.933e-3
-0.010, -2.943e-3
-0.009, -2.957e-3
-0.008, -2.967e-3
-0.007, -2.982e-3
-0.006, -2.994e-3
-0.005, -3.009e-3
-0.004, -3.020e-3
-0.003, -3.034e-3
-0.002, -3.048e-3
-0.001, -3.064e-3
-0.000, -3.079e-3
0.001, -3.093e-3
0.002, -3.104e-3
0.003, -3.119e-3
0.004, -3.130e-3
0.005, -3.143e-3
0.006, -3.155e-3
0.007, -3.168e-3
0.008, -3.179e-3
0.009, -3.193e-3
0.010, -3.206e-3
0.011, -3.219e-3
0.012, -3.232e-3
0.013, -3.246e-3
0.014, -3.257e-3
0.015, -3.272e-3
0.016, -3.284e-3
0.017, -3.299e-3
0.018, -3.310e-3
0.019, -3.325e-3
0.020, -3.338e-3
0.021, -3.352e-3
0.022, -3.364e-3
0.023, -3.377e-3
0.024, -3.388e-3
0.025, -3.404e-3
0.026, -3.414e-3
0.027, -3.429e-3
0.028, -3.441e-3
0.029, -3.455e-3
0.030, -3.468e-3
0.031, -3.482e-3
0.032, -3.495e-3
0.033, -3.509e-3
0.034, -3.521e-3
0.035, -3.534e-3
0.036, -3.548e-3
0.037, -3.561e-3
0.038, -3.575e-3
0.039, -3.589e-3
0.040, -3.600e-3
0.041, -3.613e-3
0.042, -3.624e-3
0.043, -3.638e-3
0.044, -3.649e-3
0.045, -3.663e-3
0.046, -3.674e-3
0.047, -3.688e-3
0.048, -3.700e-3
0.049, -3.715e-3
0.050, -3.727e-3
0.051, -3.740e-3
0.052, -3.753e-3
0.053, -3.767e-3
0.054, -3.778e-3
0.055, -3.792e-3
0.056, -3.804e-3
0.057, -3.818e-3
0.058, -3.832e-3
0.059, -3.846e-3
0.060, -3.859e-3
0.061, -3.873e-3
0.062, -3.886e-3
0.063, -3.901e-3
0.064, -3.913e-3
0.065, -3.928e-3
0.066, -3.940e-3
0.067, -3.954e-3
0.068, -3.966e-3
0.069, -3.980e-3
0.070, -3.992e-3
0.071, -4.006e-3
0.072, -4.017e-3
0.073, -4.032e-3
0.074, -4.044e-3
0.075, -4.057e-3
0.076, -4.071e-3
0.077, -4.085e-3
0.078, -4.097e-3
0.079, -4.111e-3
0.080, -4.124e-3
0.081, -4.137e-3
0.082, -4.149e-3
0.083, -4.163e-3
0.084, -4.176e-3
0.085, -4.190e-3
0.086, -4.202e-3
0.087, -4.216e-3
0.088, -4.228e-3
0.089, -4.242e-3
0.090, -4.255e-3
0.091, -4.270e-3
0.092, -4.283e-3
0.093, -4.297e-3
0.094, -4.307e-3
0.095, -4.322e-3
0.096, -4.334e-3
0.097, -4.350e-3
0.098, -4.361e-3
0.099, -4.374e-3
0.100, -4.387e-3
0.101, -4.401e-3
0.102, -4.414e-3
0.103, -4.428e-3
0.104, -4.439e-3
0.105, -4.453e-3
0.106, -4.465e-3
0.107, -4.478e-3
0.108, -4.491e-3
0.109, -4.505e-3
0.110, -4.518e-3
0.111, -4.531e-3
0.112, -4.543e-3
0.113, -4.558e-3
0.114, -4.569e-3
0.115, -4.584e-3
0.116, -4.596e-3
0.117, -4.611e-3
0.118, -4.623e-3
0.119, -4.636e-3
0.120, -4.649e-3
0.121, -4.664e-3
0.122, -4.675e-3
0.123, -4.689e-3
0.124, -4.701e-3
0.125, -4.715e-3
0.126, -4.728e-3
0.127, -4.741e-3
0.128, -4.754e-3
0.129, -4.768e-3
0.130, -4.782e-3
0.131, -4.795e-3
0.132, -4.808e-3
0.133, -4.821e-3
0.134, -4.834e-3
0.135, -4.848e-3
0.136, -4.859e-3
0.137, -4.874e-3
0.138, -4.886e-3
0.139, -4.901e-3
0.140, -4.911e-3
0.141, -4.925e-3
0.142, -4.937e-3
0.143, -4.952e-3
0.144, -4.964e-3
0.145, -4.979e-3
0.146, -4.990e-3
0.147, -5.005e-3
0.148, -5.017e-3
0.149, -5.033e-3
0.150, -5.045e-3
0.151, -5.059e-3
0.152, -5.071e-3
0.153, -5.086e-3
0.154, -5.098e-3
0.155, -5.111e-3
0.156, -5.123e-3
0.157, -5.137e-3
0.158, -5.148e-3
0.159, -5.162e-3
0.160, -5.174e-3
0.161, -5.189e-3
0.162, -5.200e-3
0.163, -5.216e-3
0.164, -5.227e-3
0.165, -5.242e-3
0.166, -5.252e-3
0.167, -5.267e-3
0.168, -5.279e-3
0.169, -5.293e-3
0.170, -5.304e-3
0.171, -5.318e-3
0.172, -5.330e-3
0.173, -5.344e-3
0.174, -5.354e-3
0.175, -5.369e-3
0.176, -5.379e-3
0.177, -5.393e-3
0.178, -5.406e-3
0.179, -5.419e-3
0.180, -5.431e-3
0.181, -5.446e-3
0.182, -5.457e-3
0.183, -5.470e-3
0.184, -5.481e-3
0.185, -5.494e-3
0.186, -5.508e-3
0.187, -5.521e-3
0.188, -5.532e-3
0.189, -5.547e-3
0.190, -5.558e-3
0.191, -5.570e-3
0.192, -5.582e-3
0.193, -5.596e-3
0.194, -5.608e-3
0.195, -5.622e-3
0.196, -5.633e-3
0.197, -5.646e-3
0.198, -5.659e-3
0.199, -5.672e-3
0.200, -5.684e-3
0.201, -5.699e-3
0.202, -5.708e-3
0.203, -5.722e-3
0.204, -5.734e-3
0.205, -5.749e-3
0.206, -5.761e-3
0.207, -5.776e-3
0.208, -5.786e-3
0.209, -5.800e-3
0.210, -5.810e-3
0.211, -5.824e-3
0.212, -5.836e-3
0.213, -5.850e-3
0.214, -5.861e-3
0.215, -5.874e-3
0.216, -5.886e-3
0.217, -5.900e-3
0.218, -5.912e-3
0.219, -5.926e-3
0.220, -5.936e-3
0.221, -5.950e-3
0.222, -5.959e-3
0.223, -5.973e-3
0.224, -5.986e-3
0.225, -5.999e-3
0.226, -6.011e-3
0.227, -6.025e-3
0.228, -6.037e-3
0.229, -6.050e-3
0.230, -6.061e-3
0.231, -6.075e-3
0.232, -6.086e-3
0.233, -6.100e-3
0.234, -6.109e-3
0.235, -6.123e-3
0.236, -6.134e-3
0.237, -6.148e-3
0.238, -6.159e-3
0.239, -6.173e-3
0.240, -6.183e-3
0.241, -6.196e-3
0.242, -6.209e-3
0.243, -6.223e-3
0.244, -6.234e-3
0.245, -6.247e-3
0.246, -6.258e-3
0.247, -6.271e-3
0.248, -6.283e-3
0.249, -6.296e-3
0.250, -6.308e-3
0.251, -6.319e-3
0.252, -6.331e-3
0.253, -6.344e-3
0.254, -6.355e-3
0.255, -6.368e-3
0.256, -6.381e-3
0.257, -6.393e-3
0.258, -6.404e-3
0.259, -6.416e-3
0.260, -6.429e-3
0.261, -6.443e-3
0.262, -6.453e-3
0.263, -6.468e-3
0.264, -6.479e-3
0.265, -6.493e-3
0.266, -6.503e-3
0.267, -6.517e-3
0.268, -6.528e-3
0.269, -6.542e-3
0.270, -6.552e-3
0.271, -6.563e-3
0.272, -6.575e-3
0.273, -6.588e-3
0.274, -6.598e-3
0.275, -6.609e-3
0.276, -6.620e-3
0.277, -6.632e-3
0.278, -6.643e-3
0.279, -6.654e-3
0.280, -6.665e-3
0.281, -6.680e-3
0.282, -6.690e-3
0.283, -6.703e-3
0.284, -6.714e-3
0.285, -6.727e-3
0.286, -6.738e-3
0.287, -6.750e-3
0.288, -6.761e-3
0.289, -6.775e-3
0.290, -6.785e-3
0.291, -6.797e-3
0.292, -6.809e-3
0.293, -6.820e-3
0.294, -6.831e-3
0.295, -6.843e-3
0.296, -6.853e-3
0.297, -6.866e-3
0.298, -6.875e-3
0.299, -6.888e-3
0.300, -6.899e-3
0.301, -6.911e-3
0.302, -6.922e-3
0.303, -6.936e-3
0.304, -6.945e-3
0.305, -6.958e-3
0.306, -6.970e-3
0.307, -6.983e-3
0.308, -6.994e-3
0.309, -7.006e-3
0.310, -7.017e-3
0.311, -7.029e-3
0.312, -7.039e-3
0.313, -7.052e-3
0.314, -7.061e-3
0.315, -7.073e-3
0.316, -7.083e-3
0.317, -7.094e-3
0.318, -7.105e-3
0.319, -7.117e-3
0.320, -7.127e-3
0.321, -7.140e-3
0.322, -7.149e-3
0.323, -7.162e-3
0.324, -7.173e-3
0.325, -7.184e-3
0.326, -7.194e-3
0.327, -7.208e-3
0.328, -7.217e-3
0.329, -7.229e-3
0.330, -7.240e-3
0.331, -7.252e-3
0.332, -7.262e-3
0.333, -7.275e-3
0.334, -7.284e-3
0.335, -7.297e-3
0.336, -7.305e-3
0.337, -7.318e-3
0.338, -7.328e-3
0.339, -7.340e-3
0.340, -7.351e-3
0.341, -7.362e-3
0.342, -7.372e-3
0.343, -7.384e-3
0.344, -7.393e-3
0.345, -7.406e-3
0.346, -7.415e-3
0.347, -7.428e-3
0.348, -7.438e-3
0.349, -7.449e-3
0.350, -7.462e-3
0.351, -7.471e-3
0.352, -7.482e-3
0.353, -7.494e-3
0.354, -7.505e-3
0.355, -7.516e-3
0.356, -7.525e-3
0.357, -7.537e-3
0.358, -7.547e-3
0.359, -7.559e-3
0.360, -7.568e-3
0.361, -7.579e-3
0.362, -7.589e-3
0.363, -7.600e-3
0.364, -7.609e-3
0.365, -7.621e-3
0.366, -7.630e-3
0.367, -7.642e-3
0.368, -7.649e-3
0.369, -7.661e-3
0.370, -7.670e-3
0.371, -7.682e-3
0.372, -7.692e-3
0.373, -7.704e-3
0.374, -7.712e-3
0.375, -7.725e-3
0.376, -7.735e-3
0.377, -7.747e-3
0.378, -7.756e-3
0.379, -7.769e-3
0.380, -7.778e-3
0.381, -7.789e-3
0.382, -7.799e-3
0.383, -7.810e-3
0.384, -7.819e-3
0.385, -7.830e-3
0.386, -7.838e-3
0.387, -7.849e-3
0.388, -7.856e-3
0.389, -7.867e-3
0.390, -7.877e-3
0.391, -7.888e-3
0.392, -7.896e-3
0.393, -7.909e-3
0.394, -7.918e-3
0.395, -7.929e-3
0.396, -7.937e-3
0.397, -7.949e-3
0.398, -7.957e-3
0.399, -7.969e-3
0.400, -7.977e-3
0.401, -7.989e-3
0.402, -7.997e-3
0.403, -8.010e-3
0.404, -8.020e-3
0.405, -8.029e-3
0.406, -8.038e-3
0.407, -8.049e-3
0.408, -8.058e-3
0.409, -8.070e-3
0.410, -8.080e-3
0.411, -8.090e-3
0.412, -8.099e-3
0.413, -8.110e-3
0.414, -8.119e-3
0.415, -8.130e-3
0.416, -8.139e-3
0.417, -8.148e-3
0.418, -8.157e-3
0.419, -8.169e-3
0.420, -8.177e-3
0.421, -8.188e-3
0.422, -8.197e-3
0.423, -8.209e-3
0.424, -8.216e-3
0.425, -8.228e-3
0.426, -8.237e-3
0.427, -8.247e-3
0.428, -8.256e-3
0.429, -8.267e-3
0.430, -8.274e-3
0.431, -8.285e-3
0.432, -8.293e-3
0.433, -8.303e-3
0.434, -8.310e-3
0.435, -8.322e-3
0.436, -8.331e-3
0.437, -8.340e-3
0.438, -8.349e-3
0.439, -8.360e-3
0.440, -8.368e-3
0.441, -8.378e-3
0.442, -8.387e-3
0.443, -8.399e-3
0.444, -8.408e-3
0.445, -8.419e-3
0.446, -8.427e-3
0.447, -8.438e-3
0.448, -8.446e-3
0.449, -8.456e-3
0.450, -8.465e-3
0.451, -8.476e-3
0.452, -8.484e-3
0.453, -8.496e-3
0.454, -8.504e-3
0.455, -8.514e-3
0.456, -8.521e-3
0.457, -8.532e-3
0.458, -8.539e-3
0.459, -8.549e-3
0.460, -8.558e-3
0.461, -8.569e-3
0.462, -8.576e-3
0.463, -8.586e-3
0.464, -8.595e-3
0.465, -8.605e-3
0.466, -8.613e-3
0.467, -8.623e-3
0.468, -8.633e-3
0.469, -8.643e-3
0.470, -8.649e-3
0.471, -8.661e-3
0.472, -8.668e-3
0.473, -8.679e-3
0.474, -8.687e-3
0.475, -8.698e-3
0.476, -8.705e-3
0.477, -8.715e-3
0.478, -8.723e-3
0.479, -8.733e-3
0.480, -8.741e-3
0.481, -8.750e-3
0.482, -8.758e-3
0.483, -8.766e-3
0.484, -8.775e-3
0.485, -8.783e-3
0.486, -8.791e-3
0.487, -8.802e-3
0.488, -8.810e-3
0.489, -8.820e-3
0.490, -8.829e-3
0.491, -8.837e-3
0.492, -8.845e-3
0.493, -8.856e-3
0.494, -8.864e-3
0.495, -8.874e-3
0.496, -8.882e-3
0.497, -8.892e-3
0.498, -8.902e-3
0.499, -8.911e-3
0.500, -8.919e-3
0.501, -8.930e-3
0.502, -8.936e-3
0.503, -8.945e-3
0.504, -8.954e-3
0.505, -8.963e-3
0.506, -8.970e-3
0.507, -8.981e-3
0.508, -8.988e-3
0.509, -8.998e-3
0.510, -9.006e-3
0.511, -9.017e-3
0.512, -9.025e-3
0.513, -9.034e-3
0.514, -9.042e-3
0.515, -9.052e-3
0.516, -9.059e-3
0.517, -9.069e-3
0.518, -9.077e-3
0.519, -9.089e-3
0.520, -9.095e-3
0.521, -9.105e-3
0.522, -9.112e-3
0.523, -9.122e-3
0.524, -9.128e-3
0.525, -9.139e-3
0.526, -9.148e-3
0.527, -9.158e-3
0.528, -9.163e-3
0.529, -9.174e-3
0.530, -9.182e-3
0.531, -9.191e-3
0.532, -9.199e-3
0.533, -9.210e-3
0.534, -9.218e-3
0.535, -9.227e-3
0.536, -9.234e-3
0.537, -9.244e-3
0.538, -9.251e-3
0.539, -9.260e-3
0.540, -9.267e-3
0.541, -9.277e-3
0.542, -9.283e-3
0.543, -9.295e-3
0.544, -9.302e-3
0.545, -9.310e-3
0.546, -9.319e-3
0.547, -9.329e-3
0.548, -9.336e-3
0.549, -9.346e-3
0.550, -9.351e-3
0.551, -9.362e-3
0.552, -9.369e-3
0.553, -9.379e-3
0.554, -9.387e-3
0.555, -9.395e-3
0.556, -9.403e-3
0.557, -9.414e-3
0.558, -9.421e-3
0.559, -9.429e-3
0.560, -9.436e-3
0.561, -9.446e-3
0.562, -9.453e-3
0.563, -9.462e-3
0.564, -9.469e-3
0.565, -9.479e-3
0.566, -9.487e-3
0.567, -9.495e-3
0.568, -9.502e-3
0.569, -9.511e-3
0.570, -9.519e-3
0.571, -9.529e-3
0.572, -9.535e-3
0.573, -9.544e-3
0.574, -9.552e-3
0.575, -9.561e-3
0.576, -9.569e-3
0.577, -9.579e-3
0.578, -9.586e-3
0.579, -9.595e-3
0.580, -9.603e-3
0.581, -9.611e-3
0.582, -9.619e-3
0.583, -9.627e-3
0.584, -9.634e-3
0.585, -9.644e-3
0.586, -9.651e-3
0.587, -9.661e-3
0.588, -9.668e-3
0.589, -9.678e-3
0.590, -9.685e-3
0.591, -9.695e-3
0.592, -9.701e-3
0.593, -9.712e-3
0.594, -9.718e-3
0.595, -9.728e-3
0.596, -9.734e-3
0.597, -9.743e-3
0.598, -9.749e-3
0.599, -9.759e-3
0.600, -9.766e-3
0.601, -9.775e-3
0.602, -9.781e-3
0.603, -9.790e-3
0.604, -9.796e-3
0.605, -9.805e-3
0.606, -9.811e-3
0.607, -9.821e-3
0.608, -9.828e-3
0.609, -9.838e-3
0.610, -9.845e-3
0.611, -9.855e-3
0.612, -9.861e-3
0.613, -9.872e-3
0.614, -9.878e-3
0.615, -9.889e-3
0.616, -9.895e-3
0.617, -9.904e-3
0.618, -9.911e-3
0.619, -9.921e-3
0.620, -9.928e-3
0.621, -9.936e-3
0.622, -9.944e-3
0.623, -9.951e-3
0.624, -9.958e-3
0.625, -9.968e-3
0.626, -9.975e-3
0.627, -9.983e-3
0.628, -9.989e-3
0.629, -9.997e-3
0.630, -1.000e-2
0.631, -1.001e-2
0.632, -1.002e-2
0.633, -1.003e-2
0.634, -1.003e-2
0.635, -1.004e-2
0.636, -1.005e-2
0.637, -1.006e-2
0.638, -1.006e-2
0.639, -1.007e-2
0.640, -1.008e-2
0.641, -1.009e-2
0.642, -1.010e-2
0.643, -1.011e-2
0.644, -1.011e-2
0.645, -1.012e-2
0.646, -1.013e-2
0.647, -1.014e-2
0.648, -1.014e-2
0.649, -1.015e-2
0.650, -1.016e-2
0.651, -1.017e-2
0.652, -1.017e-2
0.653, -1.018e-2
0.654, -1.019e-2
0.655, -1.020e-2
0.656, -1.020e-2
0.657, -1.021e-2
0.658, -1.022e-2
0.659, -1.023e-2
0.660, -1.024e-2
0.661, -1.024e-2
0.662, -1.025e-2
0.663, -1.026e-2
0.664, -1.026e-2
0.665, -1.027e-2
0.666, -1.028e-2
0.667, -1.029e-2
0.668, -1.030e-2
0.669, -1.031e-2
0.670, -1.031e-2
0.671, -1.032e-2
0.672, -1.033e-2
0.673, -1.034e-2
0.674, -1.034e-2
0.675, -1.035e-2
0.676, -1.036e-2
0.677, -1.037e-2
0.678, -1.037e-2
0.679, -1.038e-2
0.680, -1.039e-2
0.681, -1.040e-2
0.682, -1.041e-2
0.683, -1.042e-2
0.684, -1.042e-2
0.685, -1.043e-2
0.686, -1.044e-2
0.687, -1.045e-2
0.688, -1.045e-2
0.689, -1.046e-2
0.690, -1.047e-2
0.691, -1.048e-2
0.692, -1.049e-2
0.693, -1.049e-2
0.694, -1.050e-2
0.695, -1.051e-2
0.696, -1.052e-2
0.697, -1.052e-2
0.698, -1.053e-2
0.699, -1.054e-2
0.700, -1.055e-2
0.701, -1.055e-2
0.702, -1.056e-2
0.703, -1.057e-2
0.704, -1.058e-2
0.705, -1.059e-2
0.706, -1.060e-2
0.707, -1.060e-2
0.708, -1.061e-2
0.709, -1.062e-2
0.710, -1.063e-2
0.711, -1.064e-2
0.712, -1.064e-2
0.713, -1.065e-2
0.714, -1.066e-2
0.715, -1.067e-2
0.716, -1.067e-2
0.717, -1.069e-2
0.718, -1.069e-2
0.719, -1.070e-2
0.720, -1.071e-2
0.721, -1.072e-2
0.722, -1.072e-2
0.723, -1.073e-2
0.724, -1.074e-2
0.725, -1.075e-2
0.726, -1.076e-2
0.727, -1.077e-2
0.728, -1.077e-2
0.729, -1.078e-2
0.730, -1.079e-2
0.731, -1.080e-2
0.732, -1.081e-2
0.733, -1.082e-2
0.734, -1.083e-2
0.735, -1.084e-2
0.736, -1.085e-2
0.737, -1.085e-2
0.738, -1.086e-2
0.739, -1.087e-2
0.740, -1.088e-2
0.741, -1.089e-2
0.742, -1.090e-2
0.743, -1.091e-2
0.744, -1.091e-2
0.745, -1.092e-2
0.746, -1.093e-2
0.747, -1.094e-2
0.748, -1.095e-2
0.749, -1.096e-2
0.750, -1.096e-2
0.751, -1.097e-2
0.752, -1.098e-2
0.753, -1.099e-2
0.754, -1.100e-2
0.755, -1.101e-2
0.756, -1.102e-2
0.757, -1.103e-2
0.758, -1.104e-2
0.759, -1.105e-2
0.760, -1.106e-2
0.761, -1.107e-2
0.762, -1.108e-2
0.763, -1.109e-2
0.764, -1.109e-2
0.765, -1.110e-2
0.766, -1.111e-2
0.767, -1.112e-2
0.768, -1.113e-2
0.769, -1.114e-2
0.770, -1.115e-2
0.771, -1.116e-2
0.772, -1.117e-2
0.773, -1.118e-2
0.774, -1.119e-2
0.775, -1.120e-2
0.776, -1.121e-2
0.777, -1.122e-2
0.778, -1.123e-2
0.779, -1.124e-2
0.780, -1.125e-2
0.781, -1.126e-2
0.782, -1.127e-2
0.783, -1.128e-2
0.784, -1.129e-2
0.785, -1.130e-2
0.786, -1.131e-2
0.787, -1.132e-2
0.788, -1.133e-2
0.789, -1.134e-2
0.790, -1.135e-2
0.791, -1.136e-2
0.792, -1.137e-2
0.793, -1.138e-2
0.794, -1.139e-2
0.795, -1.140e-2
0.796, -1.141e-2
0.797, -1.142e-2
0.798, -1.143e-2
0.799, -1.145e-2
0.800, -1.143e-2
0.799, -1.137e-2
0.798, -1.133e-2
0.797, -1.129e-2
0.796, -1.125e-2
0.795, -1.121e-2
0.794, -1.117e-2
0.793, -1.113e-2
0.792, -1.109e-2
0.791, -1.106e-2
0.790, -1.103e-2
0.789, -1.099e-2
0.788, -1.096e-2
0.787, -1.093e-2
0.786, -1.089e-2
0.785, -1.086e-2
0.784, -1.083e-2
0.783, -1.080e-2
0.782, -1.077e-2
0.781, -1.074e-2
0.780, -1.071e-2
0.779, -1.068e-2
0.778, -1.065e-2
0.777, -1.062e-2
0.776, -1.059e-2
0.775, -1.056e-2
0.774, -1.053e-2
0.773, -1.050e-2
0.772, -1.048e-2
0.771, -1.045e-2
0.770, -1.042e-2
0.769, -1.040e-2
0.768, -1.037e-2
0.767, -1.034e-2
0.766, -1.032e-2
0.765, -1.029e-2
0.764, -1.026e-2
0.763, -1.024e-2
0.762, -1.021e-2
0.761, -1.019e-2
0.760, -1.016e-2
0.759, -1.014e-2
0.758, -1.011e-2
0.757, -1.009e-2
0.756, -1.007e-2
0.755, -1.005e-2
0.754, -1.002e-2
0.753, -1.000e-2
0.752, -9.978e-3
0.751, -9.956e-3
0.750, -9.932e-3
0.749, -9.909e-3
0.748, -9.884e-3
0.747, -9.861e-3
0.746, -9.838e-3
0.745, -9.815e-3
0.744, -9.793e-3
0.743, -9.770e-3
0.742, -9.748e-3
0.741, -9.727e-3
0.740, -9.703e-3
0.739, -9.681e-3
0.738, -9.659e-3
0.737, -9.637e-3
0.736, -9.614e-3
0.735, -9.593e-3
0.734, -9.572e-3
0.733, -9.551e-3
0.732, -9.529e-3
0.731, -9.509e-3
0.730, -9.487e-3
0.729, -9.465e-3
0.728, -9.444e-3
0.727, -9.425e-3
0.726, -9.404e-3
0.725, -9.385e-3
0.724, -9.364e-3
0.723, -9.344e-3
0.722, -9.322e-3
0.721, -9.303e-3
0.720, -9.282e-3
0.719, -9.263e-3
0.718, -9.242e-3
0.717, -9.223e-3
0.716, -9.202e-3
0.715, -9.183e-3
0.714, -9.163e-3
0.713, -9.143e-3
0.712, -9.124e-3
0.711, -9.105e-3
0.710, -9.084e-3
0.709, -9.067e-3
0.708, -9.047e-3
0.707, -9.028e-3
0.706, -9.009e-3
0.705, -8.991e-3
0.704, -8.972e-3
0.703, -8.953e-3
0.702, -8.935e-3
0.701, -8.916e-3
0.700, -8.897e-3
0.699, -8.878e-3
0.698, -8.859e-3
0.697, -8.839e-3
0.696, -8.821e-3
0.695, -8.803e-3
0.694, -8.785e-3
0.693, -8.769e-3
0.692, -8.751e-3
0.691, -8.735e-3
0.690, -8.717e-3
0.689, -8.700e-3
0.688, -8.681e-3
0.687, -8.663e-3
0.686, -8.646e-3
0.685, -8.629e-3
0.684, -8.611e-3
0.683, -8.594e-3
0.682, -8.577e-3
0.681, -8.561e-3
0.680, -8.544e-3
0.679, -8.526e-3
0.678, -8.510e-3
0.677, -8.494e-3
0.676, -8.476e-3
0.675, -8.459e-3
0.674, -8.441e-3
0.673, -8.423e-3
0.672, -8.406e-3
0.671, -8.390e-3
0.670, -8.372e-3
0.669, -8.356e-3
0.668, -8.340e-3
0.667, -8.324e-3
0.666, -8.307e-3
0.665, -8.292e-3
0.664, -8.275e-3
0.663, -8.260e-3
0.662, -8.244e-3
0.661, -8.227e-3
0.660, -8.211e-3
0.659, -8.195e-3
0.658, -8.179e-3
0.657, -8.162e-3
0.656, -8.147e-3
0.655, -8.131e-3
0.654, -8.115e-3
0.653, -8.100e-3
0.652, -8.083e-3
0.651, -8.068e-3
0.650, -8.052e-3
0.649, -8.037e-3
0.648, -8.023e-3
0.647, -8.006e-3
0.646, -7.989e-3
0.645, -7.974e-3
0.644, -7.959e-3
0.643, -7.944e-3
0.642, -7.928e-3
0.641, -7.913e-3
0.640, -7.897e-3
0.639, -7.882e-3
0.638, -7.867e-3
0.637, -7.854e-3
0.636, -7.838e-3
0.635, -7.825e-3
0.634, -7.809e-3
0.633, -7.796e-3
0.632, -7.781e-3
0.631, -7.765e-3
0.630, -7.749e-3
0.629, -7.736e-3
0.628, -7.719e-3
0.627, -7.705e-3
0.626, -7.689e-3
0.625, -7.674e-3
0.624, -7.660e-3
0.623, -7.645e-3
0.622, -7.631e-3
0.621, -7.616e-3
0.620, -7.603e-3
0.619, -7.588e-3
0.618, -7.573e-3
0.617, -7.560e-3
0.616, -7.546e-3
0.615, -7.530e-3
0.614, -7.515e-3
0.613, -7.502e-3
0.612, -7.488e-3
0.611, -7.473e-3
0.610, -7.459e-3
0.609, -7.444e-3
0.608, -7.430e-3
0.607, -7.415e-3
0.606, -7.401e-3
0.605, -7.386e-3
0.604, -7.372e-3
0.603, -7.358e-3
0.602, -7.345e-3
0.601, -7.330e-3
0.600, -7.316e-3
0.599, -7.302e-3
0.598, -7.289e-3
0.597, -7.275e-3
0.596, -7.260e-3
0.595, -7.247e-3
0.594, -7.232e-3
0.593, -7.219e-3
0.592, -7.205e-3
0.591, -7.191e-3
0.590, -7.178e-3
0.589, -7.163e-3
0.588, -7.150e-3
0.587, -7.136e-3
0.586, -7.123e-3
0.585, -7.109e-3
0.584, -7.096e-3
0.583, -7.082e-3
0.582, -7.068e-3
0.581, -7.056e-3
0.580, -7.043e-3
0.579, -7.030e-3
0.578, -7.016e-3
0.577, -7.003e-3
0.576, -6.989e-3
0.575, -6.976e-3
0.574, -6.963e-3
0.573, -6.950e-3
0.572, -6.935e-3
0.571, -6.921e-3
0.570, -6.908e-3
0.569, -6.893e-3
0.568, -6.881e-3
0.567, -6.868e-3
0.566, -6.854e-3
0.565, -6.841e-3
0.564, -6.828e-3
0.563, -6.816e-3
0.562, -6.802e-3
0.561, -6.791e-3
0.560, -6.777e-3
0.559, -6.763e-3
0.558, -6.751e-3
0.557, -6.737e-3
0.556, -6.724e-3
0.555, -6.711e-3
0.554, -6.699e-3
0.553, -6.685e-3
0.552, -6.673e-3
0.551, -6.659e-3
0.550, -6.645e-3
0.549, -6.634e-3
0.548, -6.620e-3
0.547, -6.608e-3
0.546, -6.597e-3
0.545, -6.585e-3
0.544, -6.571e-3
0.543, -6.559e-3
0.542, -6.546e-3
0.541, -6.534e-3
0.540, -6.521e-3
0.539, -6.507e-3
0.538, -6.494e-3
0.537, -6.483e-3
0.536, -6.470e-3
0.535, -6.455e-3
0.534, -6.442e-3
0.533, -6.428e-3
0.532, -6.416e-3
0.531, -6.403e-3
0.530, -6.391e-3
0.529, -6.379e-3
0.528, -6.364e-3
0.527, -6.353e-3
0.526, -6.341e-3
0.525, -6.328e-3
0.524, -6.314e-3
0.523, -6.303e-3
0.522, -6.290e-3
0.521, -6.278e-3
0.520, -6.265e-3
0.519, -6.253e-3
0.518, -6.240e-3
0.517, -6.227e-3
0.516, -6.215e-3
0.515, -6.202e-3
0.514, -6.191e-3
0.513, -6.177e-3
0.512, -6.165e-3
0.511, -6.151e-3
0.510, -6.138e-3
0.509, -6.126e-3
0.508, -6.113e-3
0.507, -6.101e-3
0.506, -6.089e-3
0.505, -6.076e-3
0.504, -6.064e-3
0.503, -6.051e-3
0.502, -6.039e-3
0.501, -6.027e-3
0.500, -6.015e-3
0.499, -6.001e-3
0.498, -5.989e-3
0.497, -5.977e-3
0.496, -5.964e-3
0.495, -5.951e-3
0.494, -5.938e-3
0.493, -5.926e-3
0.492, -5.915e-3
0.491, -5.902e-3
0.490, -5.891e-3
0.489, -5.878e-3
0.488, -5.866e-3
0.487, -5.853e-3
0.486, -5.841e-3
0.485, -5.829e-3
0.484, -5.815e-3
0.483, -5.804e-3
0.482, -5.791e-3
0.481, -5.779e-3
0.480, -5.767e-3
0.479, -5.754e-3
0.478, -5.741e-3
0.477, -5.729e-3
0.476, -5.716e-3
0.475, -5.704e-3
0.474, -5.692e-3
0.473, -5.680e-3
0.472, -5.668e-3
0.471, -5.655e-3
0.470, -5.644e-3
0.469, -5.631e-3
0.468, -5.618e-3
0.467, -5.606e-3
0.466, -5.595e-3
0.465, -5.582e-3
0.464, -5.569e-3
0.463, -5.558e-3
0.462, -5.546e-3
0.461, -5.533e-3
0.460, -5.520e-3
0.459, -5.508e-3
0.458, -5.496e-3
0.457, -5.484e-3
0.456, -5.473e-3
0.455, -5.459e-3
0.454, -5.447e-3
0.453, -5.435e-3
0.452, -5.424e-3
0.451, -5.411e-3
0.450, -5.399e-3
0.449, -5.388e-3
0.448, -5.374e-3
0.447, -5.362e-3
0.446, -5.350e-3
0.445, -5.338e-3
0.444, -5.327e-3
0.443, -5.314e-3
0.442, -5.303e-3
0.441, -5.290e-3
0.440, -5.277e-3
0.439, -5.265e-3
0.438, -5.252e-3
0.437, -5.239e-3
0.436, -5.228e-3
0.435, -5.213e-3
0.434, -5.201e-3
0.433, -5.187e-3
0.432, -5.175e-3
0.431, -5.163e-3
0.430, -5.150e-3
0.429, -5.139e-3
0.428, -5.126e-3
0.427, -5.115e-3
0.426, -5.103e-3
0.425, -5.091e-3
0.424, -5.079e-3
0.423, -5.065e-3
0.422, -5.053e-3
0.421, -5.040e-3
0.420, -5.027e-3
0.419, -5.013e-3
0.418, -5.001e-3
0.417, -4.988e-3
0.416, -4.975e-3
0.415, -4.961e-3
0.414, -4.950e-3
0.413, -4.936e-3
0.412, -4.924e-3
0.411, -4.910e-3
0.410, -4.897e-3
0.409, -4.884e-3
0.408, -4.872e-3
0.407, -4.859e-3
0.406, -4.846e-3
0.405, -4.835e-3
0.404, -4.822e-3
0.403, -4.809e-3
0.402, -4.797e-3
0.401, -4.783e-3
0.400, -4.771e-3
0.399, -4.757e-3
0.398, -4.745e-3
0.397, -4.732e-3
0.396, -4.719e-3
0.395, -4.708e-3
0.394, -4.695e-3
0.393, -4.681e-3
0.392, -4.669e-3
0.391, -4.655e-3
0.390, -4.642e-3
0.389, -4.630e-3
0.388, -4.617e-3
0.387, -4.605e-3
0.386, -4.591e-3
0.385, -4.578e-3
0.384, -4.565e-3
0.383, -4.551e-3
0.382, -4.537e-3
0.381, -4.525e-3
0.380, -4.513e-3
0.379, -4.500e-3
0.378, -4.487e-3
0.377, -4.473e-3
0.376, -4.461e-3
0.375, -4.448e-3
0.374, -4.436e-3
0.373, -4.423e-3
0.372, -4.411e-3
0.371, -4.398e-3
0.370, -4.385e-3
0.369, -4.372e-3
0.368, -4.358e-3
0.367, -4.345e-3
0.366, -4.332e-3
0.365, -4.319e-3
0.364, -4.306e-3
0.363, -4.292e-3
0.362, -4.279e-3
0.361, -4.265e-3
0.360, -4.253e-3
0.359, -4.238e-3
0.358, -4.225e-3
0.357, -4.211e-3
0.356, -4.198e-3
0.355, -4.184e-3
0.354, -4.172e-3
0.353, -4.157e-3
0.352, -4.145e-3
0.351, -4.130e-3
0.350, -4.119e-3
0.349, -4.105e-3
0.348, -4.092e-3
0.347, -4.078e-3
0.346, -4.064e-3
0.345, -4.050e-3
0.344, -4.038e-3
0.343, -4.023e-3
0.342, -4.010e-3
0.341, -3.998e-3
0.340, -3.984e-3
0.339, -3.971e-3
0.338, -3.958e-3
0.337, -3.944e-3
0.336, -3.929e-3
0.335, -3.914e-3
0.334, -3.902e-3
0.333, -3.887e-3
0.332, -3.873e-3
0.331, -3.859e-3
0.330, -3.846e-3
0.329, -3.831e-3
0.328, -3.818e-3
0.327, -3.804e-3
0.326, -3.792e-3
0.325, -3.777e-3
0.324, -3.765e-3
0.323, -3.750e-3
0.322, -3.736e-3
0.321, -3.722e-3
0.320, -3.709e-3
0.319, -3.694e-3
0.318, -3.680e-3
0.317, -3.667e-3
0.316, -3.655e-3
0.315, -3.642e-3
0.314, -3.628e-3
0.313, -3.616e-3
0.312, -3.604e-3
0.311, -3.589e-3
0.310, -3.576e-3
0.309, -3.561e-3
0.308, -3.548e-3
0.307, -3.532e-3
0.306, -3.519e-3
0.305, -3.503e-3
0.304, -3.490e-3
0.303, -3.475e-3
0.302, -3.460e-3
0.301, -3.446e-3
0.300, -3.432e-3
0.299, -3.418e-3
0.298, -3.404e-3
0.297, -3.389e-3
0.296, -3.376e-3
0.295, -3.361e-3
0.294, -3.348e-3
0.293, -3.334e-3
0.292, -3.319e-3
0.291, -3.304e-3
0.290, -3.290e-3
0.289, -3.275e-3
0.288, -3.260e-3
0.287, -3.246e-3
0.286, -3.231e-3
0.285, -3.216e-3
0.284, -3.202e-3
0.283, -3.186e-3
0.282, -3.173e-3
0.281, -3.159e-3
0.280, -3.144e-3
0.279, -3.131e-3
0.278, -3.115e-3
0.277, -3.100e-3
0.276, -3.087e-3
0.275, -3.071e-3
0.274, -3.056e-3
0.273, -3.040e-3
0.272, -3.026e-3
0.271, -3.010e-3
0.270, -2.998e-3
0.269, -2.981e-3
0.268, -2.967e-3
0.267, -2.951e-3
0.266, -2.937e-3
0.265, -2.923e-3
0.264, -2.911e-3
0.263, -2.896e-3
0.262, -2.882e-3
0.261, -2.867e-3
0.260, -2.852e-3
0.259, -2.836e-3
0.258, -2.822e-3
0.257, -2.807e-3
0.256, -2.790e-3
0.255, -2.775e-3
0.254, -2.760e-3
0.253, -2.744e-3
0.252, -2.730e-3
0.251, -2.714e-3
0.250, -2.699e-3
0.249, -2.684e-3
0.248, -2.668e-3
0.247, -2.654e-3
0.246, -2.639e-3
0.245, -2.624e-3
0.244, -2.609e-3
0.243, -2.592e-3
0.242, -2.578e-3
0.241, -2.561e-3
0.240, -2.546e-3
0.239, -2.531e-3
0.238, -2.516e-3
0.237, -2.498e-3
0.236, -2.484e-3
0.235, -2.469e-3
0.234, -2.454e-3
0.233, -2.439e-3
0.232, -2.424e-3
0.231, -2.407e-3
0.230, -2.392e-3
0.229, -2.376e-3
0.228, -2.360e-3
0.227, -2.346e-3
0.226, -2.330e-3
0.225, -2.314e-3
0.224, -2.298e-3
0.223, -2.281e-3
0.222, -2.267e-3
0.221, -2.250e-3
0.220, -2.234e-3
0.219, -2.218e-3
0.218, -2.203e-3
0.217, -2.187e-3
0.216, -2.171e-3
0.215, -2.156e-3
0.214, -2.141e-3
0.213, -2.125e-3
0.212, -2.109e-3
0.211, -2.092e-3
0.210, -2.076e-3
0.209, -2.060e-3
0.208, -2.045e-3
0.207, -2.028e-3
0.206, -2.014e-3
0.205, -1.998e-3
0.204, -1.983e-3
0.203, -1.964e-3
0.202, -1.949e-3
0.201, -1.932e-3
0.200, -1.916e-3
0.199, -1.899e-3
0.198, -1.884e-3
0.197, -1.866e-3
0.196, -1.851e-3
0.195, -1.834e-3
0.194, -1.819e-3
0.193, -1.803e-3
0.192, -1.787e-3
0.191, -1.769e-3
0.190, -1.755e-3
0.189, -1.738e-3
0.188, -1.721e-3
0.187, -1.706e-3
0.186, -1.689e-3
0.185, -1.672e-3
0.184, -1.658e-3
0.183, -1.641e-3
0.182, -1.625e-3
0.181, -1.608e-3
0.180, -1.592e-3
0.179, -1.576e-3
0.178, -1.560e-3
0.177, -1.544e-3
0.176, -1.529e-3
0.175, -1.513e-3
0.174, -1.498e-3
0.173, -1.482e-3
0.172, -1.467e-3
0.171, -1.451e-3
0.170, -1.433e-3
0.169, -1.417e-3
0.168, -1.401e-3
0.167, -1.384e-3
0.166, -1.369e-3
0.165, -1.351e-3
0.164, -1.335e-3
0.163, -1.317e-3
0.162, -1.302e-3
0.161, -1.285e-3
0.160, -1.269e-3
0.159, -1.250e-3
0.158, -1.234e-3
0.157, -1.218e-3
0.156, -1.201e-3
0.155, -1.185e-3
0.154, -1.167e-3
0.153, -1.150e-3
0.152, -1.135e-3
0.151, -1.116e-3
0.150, -1.100e-3
0.149, -1.082e-3
0.148, -1.065e-3
0.147, -1.048e-3
0.146, -1.033e-3
0.145, -1.015e-3
0.144, -9.997e-4
0.143, -9.829e-4
0.142, -9.676e-4
0.141, -9.497e-4
0.140, -9.325e-4
0.139, -9.171e-4
0.138, -8.997e-4
0.137, -8.820e-4
0.136, -8.666e-4
0.135, -8.468e-4
0.134, -8.319e-4
0.133, -8.138e-4
0.132, -7.981e-4
0.131, -7.814e-4
0.130, -7.640e-4
0.129, -7.470e-4
0.128, -7.298e-4
0.127, -7.119e-4
0.126, -6.964e-4
0.125, -6.799e-4
0.124, -6.616e-4
0.123, -6.460e-4
0.122, -6.288e-4
0.121, -6.103e-4
0.120, -5.951e-4
0.119, -5.772e-4
0.118, -5.612e-4
0.117, -5.428e-4
0.116, -5.263e-4
0.115, -5.089e-4
0.114, -4.919e-4
0.113, -4.738e-4
0.112, -4.579e-4
0.111, -4.394e-4
0.110, -4.236e-4
0.109, -4.043e-4
0.108, -3.871e-4
0.107, -3.711e-4
0.106, -3.536e-4
0.105, -3.369e-4
0.104, -3.194e-4
0.103, -3.024e-4
0.102, -2.854e-4
0.101, -2.674e-4
0.100, -2.516e-4
0.099, -2.332e-4
0.098, -2.173e-4
0.097, -2.002e-4
0.096, -1.824e-4
0.095, -1.654e-4
0.094, -1.478e-4
0.093, -1.302e-4
0.092, -1.144e-4
0.091, -9.789e-5
0.090, -8.071e-5
0.089, -6.293e-5
0.088, -4.615e-5
0.087, -2.788e-5
0.086, -1.080e-5
0.085, 5.989e-6
0.084, 2.602e-5
0.083, 4.261e-5
0.082, 5.871e-5
0.081, 7.491e-5
0.080, 9.209e-5
0.079, 1.103e-4
0.078, 1.260e-4
0.077, 1.427e-4
0.076, 1.595e-4
0.075, 1.764e-4
0.074, 1.935e-4
0.073, 2.111e-4
0.072, 2.275e-4
0.071, 2.453e-4
0.070, 2.616e-4
0.069, 2.793e-4
0.068, 2.965e-4
0.067, 3.133e-4
0.066, 3.303e-4
0.065, 3.494e-4
0.064, 3.655e-4
0.063, 3.844e-4
0.062, 4.023e-4
0.061, 4.209e-4
0.060, 4.389e-4
0.059, 4.558e-4
0.058, 4.728e-4
0.057, 4.892e-4
0.056, 5.071e-4
0.055, 5.245e-4
0.054, 5.404e-4
0.053, 5.581e-4
0.052, 5.744e-4
0.051, 5.935e-4
0.050, 6.093e-4
0.049, 6.276e-4
0.048, 6.444e-4
0.047, 6.633e-4
0.046, 6.810e-4
0.045, 6.980e-4
0.044, 7.157e-4
0.043, 7.331e-4
0.042, 7.494e-4
0.041, 7.671e-4
0.040, 7.834e-4
0.039, 8.019e-4
0.038, 8.179e-4
0.037, 8.375e-4
0.036, 8.552e-4
0.035, 8.716e-4
0.034, 8.885e-4
0.033, 9.059e-4
0.032, 9.211e-4
0.031, 9.406e-4
0.030, 9.564e-4
0.029, 9.734e-4
0.028, 9.910e-4
0.027, 1.008e-3
0.026, 1.025e-3
0.025, 1.042e-3
0.024, 1.059e-3
0.023, 1.075e-3
0.022, 1.093e-3
0.021, 1.111e-3
0.020, 1.128e-3
0.019, 1.146e-3
0.018, 1.163e-3
0.017, 1.180e-3
0.016, 1.197e-3
0.015, 1.215e-3
0.014, 1.231e-3
0.013, 1.248e-3
0.012, 1.264e-3
0.011, 1.282e-3
0.010, 1.296e-3
0.009, 1.315e-3
0.008, 1.332e-3
0.007, 1.349e-3
0.006, 1.365e-3
0.005, 1.383e-3
0.004, 1.398e-3
0.003, 1.415e-3
0.002, 1.431e-3
0.001, 1.450e-3
0.000, 1.469e-3
-0.001, 1.486e-3
-0.002, 1.504e-3
-0.003, 1.522e-3
-0.004, 1.539e-3
-0.005, 1.556e-3
-0.006, 1.572e-3
-0.007, 1.590e-3
-0.008, 1.606e-3
-0.009, 1.623e-3
-0.010, 1.639e-3
-0.011, 1.657e-3
-0.012, 1.674e-3
-0.013, 1.692e-3
-0.014, 1.708e-3
-0.015, 1.727e-3
-0.016, 1.743e-3
-0.017, 1.761e-3
-0.018, 1.776e-3
-0.019, 1.793e-3
-0.020, 1.809e-3
-0.021, 1.827e-3
-0.022, 1.842e-3
-0.023, 1.859e-3
-0.024, 1.876e-3
-0.025, 1.897e-3
-0.026, 1.913e-3
-0.027, 1.931e-3
-0.028, 1.947e-3
-0.029, 1.965e-3
-0.030, 1.980e-3
-0.031, 1.999e-3
-0.032, 2.014e-3
-0.033, 2.032e-3
-0.034, 2.048e-3
-0.035, 2.064e-3
-0.036, 2.081e-3
-0.037, 2.098e-3
-0.038, 2.114e-3
-0.039, 2.131e-3
-0.040, 2.148e-3
-0.041, 2.165e-3
-0.042, 2.180e-3
-0.043, 2.198e-3
-0.044, 2.215e-3
-0.045, 2.233e-3
-0.046, 2.249e-3
-0.047, 2.266e-3
-0.048, 2.281e-3
-0.049, 2.299e-3
-0.050, 2.313e-3
-0.051, 2.330e-3
-0.052, 2.346e-3
-0.053, 2.363e-3
-0.054, 2.378e-3
-0.055, 2.395e-3
-0.056, 2.410e-3
-0.057, 2.427e-3
-0.058, 2.444e-3
-0.059, 2.461e-3
-0.060, 2.479e-3
-0.061, 2.495e-3
-0.062, 2.511e-3
-0.063, 2.527e-3
-0.064, 2.543e-3
-0.065, 2.560e-3
-0.066, 2.576e-3
-0.067, 2.594e-3
-0.068, 2.611e-3
-0.069, 2.626e-3
-0.070, 2.643e-3
-0.071, 2.661e-3
-0.072, 2.676e-3
-0.073, 2.694e-3
-0.074, 2.709e-3
-0.075, 2.726e-3
-0.076, 2.741e-3
-0.077, 2.759e-3
-0.078, 2.775e-3
-0.079, 2.791e-3
-0.080, 2.807e-3
-0.081, 2.826e-3
-0.082, 2.840e-3
-0.083, 2.857e-3
-0.084, 2.873e-3
-0.085, 2.890e-3
-0.086, 2.906e-3
-0.087, 2.924e-3
-0.088, 2.939e-3
-0.089, 2.957e-3
-0.090, 2.973e-3
-0.091, 2.990e-3
-0.092, 3.005e-3
-0.093, 3.023e-3
-0.094, 3.039e-3
-0.095, 3.057e-3
-0.096, 3.072e-3
-0.097, 3.089e-3
-0.098, 3.104e-3
-0.099, 3.122e-3
-0.100, 3.137e-3
-0.101, 3.154e-3
-0.102, 3.169e-3
-0.103, 3.188e-3
-0.104, 3.203e-3
-0.105, 3.220e-3
-0.106, 3.236e-3
-0.107, 3.251e-3
-0.108, 3.268e-3
-0.109, 3.284e-3
-0.110, 3.299e-3
-0.111, 3.317e-3
-0.112, 3.332e-3
-0.113, 3.349e-3
-0.114, 3.364e-3
-0.115, 3.381e-3
-0.116, 3.397e-3
-0.117, 3.415e-3
-0.118, 3.431e-3
-0.119, 3.448e-3
-0.120, 3.465e-3
-0.121, 3.481e-3
-0.122, 3.497e-3
-0.123, 3.513e-3
-0.124, 3.527e-3
-0.125, 3.545e-3
-0.126, 3.558e-3
-0.127, 3.576e-3
-0.128, 3.591e-3
-0.129, 3.610e-3
-0.130, 3.624e-3
-0.131, 3.640e-3
-0.132, 3.657e-3
-0.133, 3.673e-3
-0.134, 3.689e-3
-0.135, 3.705e-3
-0.136, 3.721e-3
-0.137, 3.736e-3
-0.138, 3.753e-3
-0.139, 3.769e-3
-0.140, 3.784e-3
-0.141, 3.801e-3
-0.142, 3.816e-3
-0.143, 3.833e-3
-0.144, 3.849e-3
-0.145, 3.867e-3
-0.146, 3.881e-3
-0.147, 3.899e-3
-0.148, 3.914e-3
-0.149, 3.931e-3
-0.150, 3.944e-3
-0.151, 3.962e-3
-0.152, 3.978e-3
-0.153, 3.993e-3
-0.154, 4.009e-3
-0.155, 4.025e-3
-0.156, 4.040e-3
-0.157, 4.056e-3
-0.158, 4.073e-3
-0.159, 4.089e-3
-0.160, 4.104e-3
-0.161, 4.122e-3
-0.162, 4.136e-3
-0.163, 4.153e-3
-0.164, 4.170e-3
-0.165, 4.186e-3
-0.166, 4.202e-3
-0.167, 4.218e-3
-0.168, 4.234e-3
-0.169, 4.252e-3
-0.170, 4.267e-3
-0.171, 4.283e-3
-0.172, 4.298e-3
-0.173, 4.315e-3
-0.174, 4.329e-3
-0.175, 4.345e-3
-0.176, 4.360e-3
-0.177, 4.376e-3
-0.178, 4.390e-3
-0.179, 4.407e-3
-0.180, 4.423e-3
-0.181, 4.439e-3
-0.182, 4.454e-3
-0.183, 4.471e-3
-0.184, 4.484e-3
-0.185, 4.502e-3
-0.186, 4.517e-3
-0.187, 4.534e-3
-0.188, 4.548e-3
-0.189, 4.565e-3
-0.190, 4.580e-3
-0.191, 4.596e-3
-0.192, 4.612e-3
-0.193, 4.629e-3
-0.194, 4.645e-3
-0.195, 4.662e-3
-0.196, 4.677e-3
-0.197, 4.692e-3
-0.198, 4.708e-3
-0.199, 4.724e-3
-0.200, 4.738e-3
-0.201, 4.755e-3
-0.202, 4.768e-3
-0.203, 4.784e-3
-0.204, 4.798e-3
-0.205, 4.816e-3
-0.206, 4.830e-3
-0.207, 4.845e-3
-0.208, 4.861e-3
-0.209, 4.877e-3
-0.210, 4.892e-3
-0.211, 4.910e-3
-0.212, 4.925e-3
-0.213, 4.941e-3
-0.214, 4.956e-3
-0.215, 4.973e-3
-0.216, 4.987e-3
-0.217, 5.002e-3
-0.218, 5.017e-3
-0.219, 5.034e-3
-0.220, 5.049e-3
-0.221, 5.065e-3
-0.222, 5.079e-3
-0.223, 5.095e-3
-0.224, 5.111e-3
-0.225, 5.126e-3
-0.226, 5.142e-3
-0.227, 5.157e-3
-0.228, 5.170e-3
-0.229, 5.188e-3
-0.230, 5.202e-3
-0.231, 5.218e-3
-0.232, 5.233e-3
-0.233, 5.248e-3
-0.234, 5.263e-3
-0.235, 5.279e-3
-0.236, 5.293e-3
-0.237, 5.309e-3
-0.238, 5.325e-3
-0.239, 5.340e-3
-0.240, 5.356e-3
-0.241, 5.373e-3
-0.242, 5.388e-3
-0.243, 5.405e-3
-0.244, 5.420e-3
-0.245, 5.435e-3
-0.246, 5.449e-3
-0.247, 5.465e-3
-0.248, 5.478e-3
-0.249, 5.495e-3
-0.250, 5.509e-3
-0.251, 5.525e-3
-0.252, 5.539e-3
-0.253, 5.556e-3
-0.254, 5.569e-3
-0.255, 5.587e-3
-0.256, 5.601e-3
-0.257, 5.618e-3
-0.258, 5.633e-3
-0.259, 5.649e-3
-0.260, 5.663e-3
-0.261, 5.678e-3
-0.262, 5.693e-3
-0.263, 5.707e-3
-0.264, 5.720e-3
-0.265, 5.736e-3
-0.266, 5.749e-3
-0.267, 5.765e-3
-0.268, 5.780e-3
-0.269, 5.797e-3
-0.270, 5.811e-3
-0.271, 5.828e-3
-0.272, 5.841e-3
-0.273, 5.859e-3
-0.274, 5.873e-3
-0.275, 5.890e-3
-0.276, 5.902e-3
-0.277, 5.919e-3
-0.278, 5.933e-3
-0.279, 5.947e-3
-0.280, 5.962e-3
-0.281, 5.978e-3
-0.282, 5.991e-3
-0.283, 6.008e-3
-0.284, 6.022e-3
-0.285, 6.038e-3
-0.286, 6.053e-3
-0.287, 6.068e-3
-0.288, 6.084e-3
-0.289, 6.100e-3
-0.290, 6.113e-3
-0.291, 6.130e-3
-0.292, 6.143e-3
-0.293, 6.160e-3
-0.294, 6.174e-3
-0.295, 6.190e-3
-0.296, 6.202e-3
-0.297, 6.220e-3
-0.298, 6.235e-3
-0.299, 6.250e-3
-0.300, 6.264e-3
-0.301, 6.279e-3
-0.302, 6.292e-3
-0.303, 6.307e-3
-0.304, 6.319e-3
-0.305, 6.335e-3
-0.306, 6.349e-3
-0.307, 6.366e-3
-0.308, 6.380e-3
-0.309, 6.397e-3
-0.310, 6.410e-3
-0.311, 6.427e-3
-0.312, 6.440e-3
-0.313, 6.456e-3
-0.314, 6.470e-3
-0.315, 6.486e-3
-0.316, 6.500e-3
-0.317, 6.514e-3
-0.318, 6.530e-3
-0.319, 6.545e-3
-0.320, 6.558e-3
-0.321, 6.575e-3
-0.322, 6.589e-3
-0.323, 6.605e-3
-0.324, 6.619e-3
-0.325, 6.635e-3
-0.326, 6.649e-3
-0.327, 6.666e-3
-0.328, 6.681e-3
-0.329, 6.696e-3
-0.330, 6.708e-3
-0.331, 6.724e-3
-0.332, 6.738e-3
-0.333, 6.753e-3
-0.334, 6.768e-3
-0.335, 6.784e-3
-0.336, 6.795e-3
-0.337, 6.813e-3
-0.338, 6.828e-3
-0.339, 6.844e-3
-0.340, 6.858e-3
-0.341, 6.874e-3
-0.342, 6.888e-3
-0.343, 6.904e-3
-0.344, 6.918e-3
-0.345, 6.932e-3
-0.346, 6.945e-3
-0.347, 6.960e-3
-0.348, 6.972e-3
-0.349, 6.990e-3
-0.350, 7.002e-3
-0.351, 7.019e-3
-0.352, 7.033e-3
-0.353, 7.050e-3
-0.354, 7.063e-3
-0.355, 7.078e-3
-0.356, 7.093e-3
-0.357, 7.108e-3
-0.358, 7.121e-3
-0.359, 7.139e-3
-0.360, 7.151e-3
-0.361, 7.167e-3
-0.362, 7.179e-3
-0.363, 7.196e-3
-0.364, 7.209e-3
-0.365, 7.226e-3
-0.366, 7.239e-3
-0.367, 7.256e-3
-0.368, 7.269e-3
-0.369, 7.287e-3
-0.370, 7.300e-3
-0.371, 7.317e-3
-0.372, 7.331e-3
-0.373, 7.348e-3
-0.374, 7.361e-3
-0.375, 7.377e-3
-0.376, 7.390e-3
-0.377, 7.405e-3
-0.378, 7.418e-3
-0.379, 7.434e-3
-0.380, 7.449e-3
-0.381, 7.463e-3
-0.382, 7.478e-3
-0.383, 7.494e-3
-0.384, 7.507e-3
-0.385, 7.523e-3
-0.386, 7.537e-3
-0.387, 7.552e-3
-0.388, 7.567e-3
-0.389, 7.583e-3
-0.390, 7.596e-3
-0.391, 7.613e-3
-0.392, 7.626e-3
-0.393, 7.642e-3
-0.394, 7.655e-3
-0.395, 7.672e-3
-0.396, 7.685e-3
-0.397, 7.701e-3
-0.398, 7.715e-3
-0.399, 7.731e-3
-0.400, 7.745e-3
-0.401, 7.761e-3
-0.402, 7.774e-3
-0.403, 7.789e-3
-0.404, 7.803e-3
-0.405, 7.820e-3
-0.406, 7.833e-3
-0.407, 7.848e-3
-0.408, 7.861e-3
-0.409, 7.877e-3
-0.410, 7.892e-3
-0.411, 7.908e-3
-0.412, 7.921e-3
-0.413, 7.936e-3
-0.414, 7.951e-3
-0.415, 7.967e-3
-0.416, 7.981e-3
-0.417, 7.998e-3
-0.418, 8.011e-3
-0.419, 8.028e-3
-0.420, 8.041e-3
-0.421, 8.057e-3
-0.422, 8.070e-3
-0.423, 8.087e-3
-0.424, 8.100e-3
-0.425, 8.115e-3
-0.426, 8.127e-3
-0.427, 8.144e-3
-0.428, 8.157e-3
-0.429, 8.174e-3
-0.430, 8.186e-3
-0.431, 8.203e-3
-0.432, 8.216e-3
-0.433, 8.232e-3
-0.434, 8.245e-3
-0.435, 8.262e-3
-0.436, 8.275e-3
-0.437, 8.292e-3
-0.438, 8.305e-3
-0.439, 8.322e-3
-0.440, 8.336e-3
-0.441, 8.352e-3
-0.442, 8.366e-3
-0.443, 8.380e-3
-0.444, 8.394e-3
-0.445, 8.411e-3
-0.446, 8.425e-3
-0.447, 8.440e-3
-0.448, 8.455e-3
-0.449, 8.471e-3
-0.450, 8.484e-3
-0.451, 8.499e-3
-0.452, 8.514e-3
-0.453, 8.531e-3
-0.454, 8.545e-3
-0.455, 8.561e-3
-0.456, 8.574e-3
-0.457, 8.591e-3
-0.458, 8.603e-3
-0.459, 8.619e-3
-0.460, 8.632e-3
-0.461, 8.648e-3
-0.462, 8.662e-3
-0.463, 8.676e-3
-0.464, 8.689e-3
-0.465, 8.706e-3
-0.466, 8.718e-3
-0.467, 8.736e-3
-0.468, 8.749e-3
-0.469, 8.765e-3
-0.470, 8.780e-3
-0.471, 8.795e-3
-0.472, 8.809e-3
-0.473, 8.826e-3
-0.474, 8.839e-3
-0.475, 8.856e-3
-0.476, 8.868e-3
-0.477, 8.883e-3
-0.478, 8.897e-3
-0.479, 8.913e-3
-0.480, 8.926e-3
-0.481, 8.942e-3
-0.482, 8.956e-3
-0.483, 8.972e-3
-0.484, 8.984e-3
-0.485, 9.000e-3
-0.486, 9.013e-3
-0.487, 9.030e-3
-0.488, 9.043e-3
-0.489, 9.058e-3
-0.490, 9.071e-3
-0.491, 9.087e-3
-0.492, 9.100e-3
-0.493, 9.117e-3
-0.494, 9.129e-3
-0.495, 9.145e-3
-0.496, 9.158e-3
-0.497, 9.173e-3
-0.498, 9.185e-3
-0.499, 9.203e-3
-0.500, 9.216e-3
-0.501, 9.233e-3
-0.502, 9.246e-3
-0.503, 9.262e-3
-0.504, 9.276e-3
-0.505, 9.292e-3
-0.506, 9.306e-3
-0.507, 9.322e-3
-0.508, 9.333e-3
-0.509, 9.351e-3
-0.510, 9.363e-3
-0.511, 9.379e-3
-0.512, 9.393e-3
-0.513, 9.409e-3
-0.514, 9.422e-3
-0.515, 9.437e-3
-0.516, 9.452e-3
-0.517, 9.466e-3
-0.518, 9.481e-3
-0.519, 9.496e-3
-0.520, 9.510e-3
-0.521, 9.525e-3
-0.522, 9.539e-3
-0.523, 9.555e-3
-0.524, 9.569e-3
-0.525, 9.584e-3
-0.526, 9.597e-3
-0.527, 9.611e-3
-0.528, 9.626e-3
-0.529, 9.641e-3
-0.530, 9.653e-3
-0.531, 9.670e-3
-0.532, 9.685e-3
-0.533, 9.699e-3
-0.534, 9.713e-3
-0.535, 9.729e-3
-0.536, 9.741e-3
-0.537, 9.758e-3
-0.538, 9.772e-3
-0.539, 9.788e-3
-0.540, 9.801e-3
-0.541, 9.814e-3
-0.542, 9.828e-3
-0.543, 9.843e-3
-0.544, 9.857e-3
-0.545, 9.872e-3
-0.546, 9.885e-3
-0.547, 9.900e-3
-0.548, 9.913e-3
-0.549, 9.928e-3
-0.550, 9.941e-3
-0.551, 9.958e-3
-0.552, 9.971e-3
-0.553, 9.987e-3
-0.554, 1.000e-2
-0.555, 1.002e-2
-0.556, 1.003e-2
-0.557, 1.004e-2
-0.558, 1.006e-2
-0.559, 1.007e-2
-0.560, 1.008e-2
-0.561, 1.010e-2
-0.562, 1.011e-2
-0.563, 1.013e-2
-0.564, 1.014e-2
-0.565, 1.016e-2
-0.566, 1.017e-2
-0.567, 1.019e-2
-0.568, 1.020e-2
-0.569, 1.021e-2
-0.570, 1.023e-2
-0.571, 1.024e-2
-0.572, 1.026e-2
-0.573, 1.027e-2
-0.574, 1.028e-2
-0.575, 1.030e-2
-0.576, 1.031e-2
-0.577, 1.033e-2
-0.578, 1.034e-2
-0.579, 1.036e-2
-0.580, 1.037e-2
-0.581, 1.038e-2
-0.582, 1.039e-2
-0.583, 1.041e-2
-0.584, 1.042e-2
-0.585, 1.044e-2
-0.586, 1.045e-2
-0.587, 1.047e-2
-0.588, 1.048e-2
-0.589, 1.050e-2
-0.590, 1.051e-2
-0.591, 1.052e-2
-0.592, 1.054e-2
-0.593, 1.055e-2
-0.594, 1.057e-2
-0.595, 1.058e-2
-0.596, 1.059e-2
-0.597, 1.061e-2
-0.598, 1.062e-2
-0.599, 1.064e-2
-0.600, 1.065e-2
-0.601, 1.067e-2
-0.602, 1.068e-2
-0.603, 1.069e-2
-0.604, 1.071e-2
-0.605, 1.072e-2
-0.606, 1.074e-2
-0.607, 1.075e-2
-0.608, 1.077e-2
-0.609, 1.078e-2
-0.610, 1.079e-2
-0.611, 1.081e-2
-0.612, 1.082e-2
-0.613, 1.083e-2
-0.614, 1.085e-2
-0.615, 1.087e-2
-0.616, 1.088e-2
-0.617, 1.089e-2
-0.618, 1.091e-2
-0.619, 1.092e-2
-0.620, 1.093e-2
-0.621, 1.095e-2
-0.622, 1.096e-2
-0.623, 1.098e-2
-0.624, 1.099e-2
-0.625, 1.101e-2
-0.626, 1.102e-2
-0.627, 1.104e-2
-0.628, 1.105e-2
-0.629, 1.106e-2
-0.630, 1.108e-2
-0.631, 1.109e-2
-0.632, 1.110e-2
-0.633, 1.112e-2
-0.634, 1.113e-2
-0.635, 1.115e-2
-0.636, 1.116e-2
-0.637, 1.117e-2
-0.638, 1.119e-2
-0.639, 1.120e-2
-0.640, 1.121e-2
-0.641, 1.123e-2
-0.642, 1.124e-2
-0.643, 1.126e-2
-0.644, 1.127e-2
-0.645, 1.129e-2
-0.646, 1.130e-2
-0.647, 1.131e-2
-0.648, 1.133e-2
-0.649, 1.134e-2
-0.650, 1.135e-2
-0.651, 1.137e-2
-0.652, 1.138e-2
-0.653, 1.140e-2
-0.654, 1.141e-2
-0.655, 1.143e-2
-0.656, 1.144e-2
-0.657, 1.145e-2
-0.658, 1.146e-2
-0.659, 1.148e-2
-0.660, 1.149e-2
-0.661, 1.151e-2
-0.662, 1.152e-2
-0.663, 1.154e-2
-0.664, 1.155e-2
-0.665, 1.156e-2
-0.666, 1.158e-2
-0.667, 1.159e-2
-0.668, 1.161e-2
-0.669, 1.162e-2
-0.670, 1.163e-2
-0.671, 1.165e-2
-0.672, 1.166e-2
-0.673, 1.168e-2
-0.674, 1.169e-2
-0.675, 1.170e-2
-0.676, 1.172e-2
-0.677, 1.173e-2
-0.678, 1.174e-2
-0.679, 1.176e-2
-0.680, 1.177e-2
-0.681, 1.179e-2
-0.682, 1.180e-2
-0.683, 1.182e-2
-0.684, 1.183e-2
-0.685, 1.184e-2
-0.686, 1.186e-2
-0.687, 1.187e-2
-0.688, 1.188e-2
-0.689, 1.190e-2
-0.690, 1.191e-2
-0.691, 1.193e-2
-0.692, 1.194e-2
-0.693, 1.195e-2
-0.694, 1.197e-2
-0.695, 1.198e-2
-0.696, 1.199e-2
-0.697, 1.201e-2
-0.698, 1.202e-2
-0.699, 1.204e-2
-0.700, 1.205e-2
-0.701, 1.206e-2
-0.702, 1.208e-2
-0.703, 1.209e-2
-0.704, 1.210e-2
-0.705, 1.211e-2
-0.706, 1.212e-2
-0.707, 1.213e-2
-0.708, 1.214e-2
-0.709, 1.216e-2
-0.710, 1.217e-2
-0.711, 1.218e-2
-0.712, 1.220e-2
-0.713, 1.221e-2
-0.714, 1.222e-2
-0.715, 1.224e-2
-0.716, 1.225e-2
-0.717, 1.227e-2
-0.718, 1.228e-2
-0.719, 1.230e-2
-0.720, 1.231e-2
-0.721, 1.232e-2
-0.722, 1.234e-2
-0.723, 1.235e-2
-0.724, 1.236e-2
-0.725, 1.238e-2
-0.726, 1.239e-2
-0.727, 1.240e-2
-0.728, 1.242e-2
-0.729, 1.243e-2
-0.730, 1.245e-2
-0.731, 1.246e-2
-0.732, 1.247e-2
-0.733, 1.249e-2
-0.734, 1.250e-2
-0.735, 1.252e-2
-0.736, 1.253e-2
-0.737, 1.255e-2
-0.738, 1.256e-2
-0.739, 1.257e-2
-0.740, 1.258e-2
-0.741, 1.260e-2
-0.742, 1.261e-2
-0.743, 1.263e-2
-0.744, 1.264e-2
-0.745, 1.266e-2
-0.746, 1.267e-2
-0.747, 1.268e-2
-0.748, 1.270e-2
-0.749, 1.271e-2
-0.750, 1.273e-2
-0.751, 1.274e-2
-0.752, 1.275e-2
-0.753, 1.277e-2
-0.754, 1.278e-2
-0.755, 1.279e-2
-0.756, 1.281e-2
-0.757, 1.282e-2
-0.758, 1.283e-2
-0.759, 1.284e-2
-0.760, 1.286e-2
-0.761, 1.287e-2
-0.762, 1.288e-2
-0.763, 1.290e-2
-0.764, 1.291e-2
-0.765, 1.292e-2
-0.766, 1.294e-2
-0.767, 1.295e-2
-0.768, 1.297e-2
-0.769, 1.298e-2
-0.770, 1.300e-2
-0.771, 1.301e-2
-0.772, 1.302e-2
-0.773, 1.304e-2
-0.774, 1.305e-2
-0.775, 1.306e-2
-0.776, 1.308e-2
-0.777, 1.309e-2
-0.778, 1.310e-2
-0.779, 1.312e-2
-0.780, 1.313e-2
-0.781, 1.315e-2
-0.782, 1.316e-2
-0.783, 1.317e-2
-0.784, 1.319e-2
-0.785, 1.320e-2
-0.786, 1.322e-2
-0.787, 1.323e-2
-0.788, 1.324e-2
-0.789, 1.326e-2
-0.790, 1.327e-2
-0.791, 1.328e-2
-0.792, 1.330e-2
-0.793, 1.331e-2
-0.794, 1.332e-2
-0.795, 1.334e-2
-0.796, 1.335e-2
-0.797, 1.337e-2
-0.798, 1.338e-2
-0.799, 1.340e-2
