Apr. 28, 2026   11:10:54
Cyclic Voltammetry
File: c:\users\administrator\desktop\2026.4.28\hi 0.1v\2mol h2so4\run unsaved.txt
Data Source:  Experiment
Instrument Model:  CHI600E
Header: 
Note: 

Init E (V) = 0
High E (V) = 0.8
Low E (V) = -0.8
Init P/N = N
Scan Rate (V/s) = 0.1
Segment = 3
Sample Interval (V) = 0.001
Quiet Time (sec) = 2
Sensitivity (A/V) = 0.1

Segment 1:

Segment 2:

Segment 3:

Potential/V, Current/A

0.000, 2.944e-3
-0.001, 3.164e-3
-0.002, 3.356e-3
-0.003, 3.535e-3
-0.004, 3.700e-3
-0.005, 3.861e-3
-0.006, 4.015e-3
-0.007, 4.166e-3
-0.008, 4.311e-3
-0.009, 4.450e-3
-0.010, 4.586e-3
-0.011, 4.720e-3
-0.012, 4.847e-3
-0.013, 4.978e-3
-0.014, 5.101e-3
-0.015, 5.221e-3
-0.016, 5.341e-3
-0.017, 5.461e-3
-0.018, 5.574e-3
-0.019, 5.689e-3
-0.020, 5.800e-3
-0.021, 5.911e-3
-0.022, 6.019e-3
-0.023, 6.128e-3
-0.024, 6.233e-3
-0.025, 6.336e-3
-0.026, 6.437e-3
-0.027, 6.541e-3
-0.028, 6.642e-3
-0.029, 6.741e-3
-0.030, 6.840e-3
-0.031, 6.938e-3
-0.032, 7.033e-3
-0.033, 7.130e-3
-0.034, 7.223e-3
-0.035, 7.321e-3
-0.036, 7.413e-3
-0.037, 7.504e-3
-0.038, 7.595e-3
-0.039, 7.689e-3
-0.040, 7.776e-3
-0.041, 7.868e-3
-0.042, 7.953e-3
-0.043, 8.044e-3
-0.044, 8.129e-3
-0.045, 8.217e-3
-0.046, 8.302e-3
-0.047, 8.391e-3
-0.048, 8.474e-3
-0.049, 8.560e-3
-0.050, 8.642e-3
-0.051, 8.727e-3
-0.052, 8.811e-3
-0.053, 8.892e-3
-0.054, 8.973e-3
-0.055, 9.055e-3
-0.056, 9.131e-3
-0.057, 9.213e-3
-0.058, 9.293e-3
-0.059, 9.372e-3
-0.060, 9.449e-3
-0.061, 9.527e-3
-0.062, 9.603e-3
-0.063, 9.681e-3
-0.064, 9.757e-3
-0.065, 9.833e-3
-0.066, 9.906e-3
-0.067, 9.982e-3
-0.068, 1.005e-2
-0.069, 1.013e-2
-0.070, 1.020e-2
-0.071, 1.028e-2
-0.072, 1.035e-2
-0.073, 1.042e-2
-0.074, 1.049e-2
-0.075, 1.056e-2
-0.076, 1.063e-2
-0.077, 1.071e-2
-0.078, 1.078e-2
-0.079, 1.085e-2
-0.080, 1.091e-2
-0.081, 1.099e-2
-0.082, 1.105e-2
-0.083, 1.113e-2
-0.084, 1.120e-2
-0.085, 1.126e-2
-0.086, 1.133e-2
-0.087, 1.140e-2
-0.088, 1.146e-2
-0.089, 1.153e-2
-0.090, 1.160e-2
-0.091, 1.167e-2
-0.092, 1.173e-2
-0.093, 1.180e-2
-0.094, 1.187e-2
-0.095, 1.193e-2
-0.096, 1.200e-2
-0.097, 1.206e-2
-0.098, 1.211e-2
-0.099, 1.217e-2
-0.100, 1.224e-2
-0.101, 1.230e-2
-0.102, 1.237e-2
-0.103, 1.243e-2
-0.104, 1.250e-2
-0.105, 1.256e-2
-0.106, 1.262e-2
-0.107, 1.269e-2
-0.108, 1.275e-2
-0.109, 1.281e-2
-0.110, 1.287e-2
-0.111, 1.293e-2
-0.112, 1.299e-2
-0.113, 1.306e-2
-0.114, 1.311e-2
-0.115, 1.318e-2
-0.116, 1.324e-2
-0.117, 1.330e-2
-0.118, 1.336e-2
-0.119, 1.342e-2
-0.120, 1.348e-2
-0.121, 1.354e-2
-0.122, 1.360e-2
-0.123, 1.366e-2
-0.124, 1.372e-2
-0.125, 1.378e-2
-0.126, 1.383e-2
-0.127, 1.390e-2
-0.128, 1.395e-2
-0.129, 1.401e-2
-0.130, 1.407e-2
-0.131, 1.413e-2
-0.132, 1.418e-2
-0.133, 1.424e-2
-0.134, 1.429e-2
-0.135, 1.435e-2
-0.136, 1.441e-2
-0.137, 1.447e-2
-0.138, 1.452e-2
-0.139, 1.458e-2
-0.140, 1.464e-2
-0.141, 1.470e-2
-0.142, 1.475e-2
-0.143, 1.481e-2
-0.144, 1.486e-2
-0.145, 1.492e-2
-0.146, 1.497e-2
-0.147, 1.503e-2
-0.148, 1.508e-2
-0.149, 1.514e-2
-0.150, 1.519e-2
-0.151, 1.525e-2
-0.152, 1.530e-2
-0.153, 1.536e-2
-0.154, 1.541e-2
-0.155, 1.547e-2
-0.156, 1.552e-2
-0.157, 1.558e-2
-0.158, 1.563e-2
-0.159, 1.569e-2
-0.160, 1.574e-2
-0.161, 1.580e-2
-0.162, 1.585e-2
-0.163, 1.590e-2
-0.164, 1.595e-2
-0.165, 1.600e-2
-0.166, 1.606e-2
-0.167, 1.612e-2
-0.168, 1.617e-2
-0.169, 1.622e-2
-0.170, 1.627e-2
-0.171, 1.632e-2
-0.172, 1.638e-2
-0.173, 1.643e-2
-0.174, 1.648e-2
-0.175, 1.654e-2
-0.176, 1.659e-2
-0.177, 1.664e-2
-0.178, 1.669e-2
-0.179, 1.675e-2
-0.180, 1.679e-2
-0.181, 1.685e-2
-0.182, 1.690e-2
-0.183, 1.695e-2
-0.184, 1.700e-2
-0.185, 1.705e-2
-0.186, 1.710e-2
-0.187, 1.715e-2
-0.188, 1.720e-2
-0.189, 1.726e-2
-0.190, 1.730e-2
-0.191, 1.736e-2
-0.192, 1.740e-2
-0.193, 1.746e-2
-0.194, 1.750e-2
-0.195, 1.756e-2
-0.196, 1.760e-2
-0.197, 1.766e-2
-0.198, 1.771e-2
-0.199, 1.776e-2
-0.200, 1.780e-2
-0.201, 1.785e-2
-0.202, 1.790e-2
-0.203, 1.795e-2
-0.204, 1.800e-2
-0.205, 1.805e-2
-0.206, 1.810e-2
-0.207, 1.815e-2
-0.208, 1.819e-2
-0.209, 1.825e-2
-0.210, 1.829e-2
-0.211, 1.834e-2
-0.212, 1.839e-2
-0.213, 1.844e-2
-0.214, 1.849e-2
-0.215, 1.854e-2
-0.216, 1.858e-2
-0.217, 1.863e-2
-0.218, 1.868e-2
-0.219, 1.873e-2
-0.220, 1.878e-2
-0.221, 1.883e-2
-0.222, 1.887e-2
-0.223, 1.892e-2
-0.224, 1.897e-2
-0.225, 1.902e-2
-0.226, 1.906e-2
-0.227, 1.911e-2
-0.228, 1.916e-2
-0.229, 1.921e-2
-0.230, 1.925e-2
-0.231, 1.930e-2
-0.232, 1.935e-2
-0.233, 1.940e-2
-0.234, 1.944e-2
-0.235, 1.949e-2
-0.236, 1.954e-2
-0.237, 1.959e-2
-0.238, 1.963e-2
-0.239, 1.968e-2
-0.240, 1.972e-2
-0.241, 1.977e-2
-0.242, 1.982e-2
-0.243, 1.987e-2
-0.244, 1.991e-2
-0.245, 1.996e-2
-0.246, 2.001e-2
-0.247, 2.005e-2
-0.248, 2.010e-2
-0.249, 2.015e-2
-0.250, 2.019e-2
-0.251, 2.024e-2
-0.252, 2.028e-2
-0.253, 2.033e-2
-0.254, 2.038e-2
-0.255, 2.042e-2
-0.256, 2.047e-2
-0.257, 2.052e-2
-0.258, 2.056e-2
-0.259, 2.061e-2
-0.260, 2.065e-2
-0.261, 2.070e-2
-0.262, 2.074e-2
-0.263, 2.079e-2
-0.264, 2.083e-2
-0.265, 2.088e-2
-0.266, 2.092e-2
-0.267, 2.097e-2
-0.268, 2.102e-2
-0.269, 2.106e-2
-0.270, 2.111e-2
-0.271, 2.115e-2
-0.272, 2.120e-2
-0.273, 2.124e-2
-0.274, 2.128e-2
-0.275, 2.133e-2
-0.276, 2.138e-2
-0.277, 2.142e-2
-0.278, 2.146e-2
-0.279, 2.151e-2
-0.280, 2.155e-2
-0.281, 2.160e-2
-0.282, 2.164e-2
-0.283, 2.169e-2
-0.284, 2.173e-2
-0.285, 2.178e-2
-0.286, 2.182e-2
-0.287, 2.187e-2
-0.288, 2.191e-2
-0.289, 2.195e-2
-0.290, 2.199e-2
-0.291, 2.204e-2
-0.292, 2.208e-2
-0.293, 2.213e-2
-0.294, 2.217e-2
-0.295, 2.222e-2
-0.296, 2.226e-2
-0.297, 2.230e-2
-0.298, 2.235e-2
-0.299, 2.239e-2
-0.300, 2.243e-2
-0.301, 2.248e-2
-0.302, 2.252e-2
-0.303, 2.257e-2
-0.304, 2.261e-2
-0.305, 2.265e-2
-0.306, 2.269e-2
-0.307, 2.274e-2
-0.308, 2.278e-2
-0.309, 2.283e-2
-0.310, 2.287e-2
-0.311, 2.291e-2
-0.312, 2.296e-2
-0.313, 2.300e-2
-0.314, 2.305e-2
-0.315, 2.309e-2
-0.316, 2.313e-2
-0.317, 2.318e-2
-0.318, 2.322e-2
-0.319, 2.326e-2
-0.320, 2.330e-2
-0.321, 2.335e-2
-0.322, 2.339e-2
-0.323, 2.344e-2
-0.324, 2.348e-2
-0.325, 2.352e-2
-0.326, 2.356e-2
-0.327, 2.361e-2
-0.328, 2.365e-2
-0.329, 2.369e-2
-0.330, 2.373e-2
-0.331, 2.378e-2
-0.332, 2.382e-2
-0.333, 2.387e-2
-0.334, 2.391e-2
-0.335, 2.395e-2
-0.336, 2.399e-2
-0.337, 2.404e-2
-0.338, 2.408e-2
-0.339, 2.413e-2
-0.340, 2.417e-2
-0.341, 2.421e-2
-0.342, 2.425e-2
-0.343, 2.430e-2
-0.344, 2.434e-2
-0.345, 2.438e-2
-0.346, 2.442e-2
-0.347, 2.447e-2
-0.348, 2.451e-2
-0.349, 2.455e-2
-0.350, 2.459e-2
-0.351, 2.464e-2
-0.352, 2.468e-2
-0.353, 2.472e-2
-0.354, 2.476e-2
-0.355, 2.481e-2
-0.356, 2.485e-2
-0.357, 2.489e-2
-0.358, 2.493e-2
-0.359, 2.498e-2
-0.360, 2.502e-2
-0.361, 2.507e-2
-0.362, 2.510e-2
-0.363, 2.515e-2
-0.364, 2.519e-2
-0.365, 2.523e-2
-0.366, 2.527e-2
-0.367, 2.532e-2
-0.368, 2.536e-2
-0.369, 2.540e-2
-0.370, 2.544e-2
-0.371, 2.549e-2
-0.372, 2.553e-2
-0.373, 2.557e-2
-0.374, 2.561e-2
-0.375, 2.566e-2
-0.376, 2.570e-2
-0.377, 2.574e-2
-0.378, 2.578e-2
-0.379, 2.582e-2
-0.380, 2.586e-2
-0.381, 2.590e-2
-0.382, 2.594e-2
-0.383, 2.599e-2
-0.384, 2.603e-2
-0.385, 2.607e-2
-0.386, 2.611e-2
-0.387, 2.615e-2
-0.388, 2.619e-2
-0.389, 2.624e-2
-0.390, 2.628e-2
-0.391, 2.632e-2
-0.392, 2.636e-2
-0.393, 2.641e-2
-0.394, 2.645e-2
-0.395, 2.649e-2
-0.396, 2.653e-2
-0.397, 2.658e-2
-0.398, 2.661e-2
-0.399, 2.666e-2
-0.400, 2.670e-2
-0.401, 2.674e-2
-0.402, 2.678e-2
-0.403, 2.683e-2
-0.404, 2.687e-2
-0.405, 2.691e-2
-0.406, 2.695e-2
-0.407, 2.700e-2
-0.408, 2.703e-2
-0.409, 2.708e-2
-0.410, 2.713e-2
-0.411, 2.717e-2
-0.412, 2.721e-2
-0.413, 2.725e-2
-0.414, 2.729e-2
-0.415, 2.734e-2
-0.416, 2.738e-2
-0.417, 2.742e-2
-0.418, 2.746e-2
-0.419, 2.751e-2
-0.420, 2.755e-2
-0.421, 2.759e-2
-0.422, 2.763e-2
-0.423, 2.768e-2
-0.424, 2.772e-2
-0.425, 2.776e-2
-0.426, 2.780e-2
-0.427, 2.784e-2
-0.428, 2.788e-2
-0.429, 2.792e-2
-0.430, 2.796e-2
-0.431, 2.801e-2
-0.432, 2.805e-2
-0.433, 2.809e-2
-0.434, 2.813e-2
-0.435, 2.818e-2
-0.436, 2.822e-2
-0.437, 2.826e-2
-0.438, 2.830e-2
-0.439, 2.835e-2
-0.440, 2.839e-2
-0.441, 2.844e-2
-0.442, 2.848e-2
-0.443, 2.852e-2
-0.444, 2.856e-2
-0.445, 2.860e-2
-0.446, 2.864e-2
-0.447, 2.869e-2
-0.448, 2.873e-2
-0.449, 2.877e-2
-0.450, 2.881e-2
-0.451, 2.886e-2
-0.452, 2.890e-2
-0.453, 2.895e-2
-0.454, 2.899e-2
-0.455, 2.903e-2
-0.456, 2.907e-2
-0.457, 2.912e-2
-0.458, 2.916e-2
-0.459, 2.921e-2
-0.460, 2.925e-2
-0.461, 2.929e-2
-0.462, 2.934e-2
-0.463, 2.938e-2
-0.464, 2.942e-2
-0.465, 2.947e-2
-0.466, 2.950e-2
-0.467, 2.955e-2
-0.468, 2.960e-2
-0.469, 2.964e-2
-0.470, 2.968e-2
-0.471, 2.973e-2
-0.472, 2.977e-2
-0.473, 2.981e-2
-0.474, 2.985e-2
-0.475, 2.990e-2
-0.476, 2.994e-2
-0.477, 2.999e-2
-0.478, 3.003e-2
-0.479, 3.007e-2
-0.480, 3.011e-2
-0.481, 3.016e-2
-0.482, 3.020e-2
-0.483, 3.025e-2
-0.484, 3.029e-2
-0.485, 3.034e-2
-0.486, 3.038e-2
-0.487, 3.043e-2
-0.488, 3.047e-2
-0.489, 3.052e-2
-0.490, 3.056e-2
-0.491, 3.061e-2
-0.492, 3.065e-2
-0.493, 3.070e-2
-0.494, 3.074e-2
-0.495, 3.079e-2
-0.496, 3.083e-2
-0.497, 3.088e-2
-0.498, 3.092e-2
-0.499, 3.097e-2
-0.500, 3.101e-2
-0.501, 3.106e-2
-0.502, 3.110e-2
-0.503, 3.115e-2
-0.504, 3.119e-2
-0.505, 3.124e-2
-0.506, 3.128e-2
-0.507, 3.133e-2
-0.508, 3.138e-2
-0.509, 3.142e-2
-0.510, 3.147e-2
-0.511, 3.152e-2
-0.512, 3.156e-2
-0.513, 3.161e-2
-0.514, 3.165e-2
-0.515, 3.170e-2
-0.516, 3.174e-2
-0.517, 3.179e-2
-0.518, 3.184e-2
-0.519, 3.189e-2
-0.520, 3.194e-2
-0.521, 3.198e-2
-0.522, 3.202e-2
-0.523, 3.208e-2
-0.524, 3.212e-2
-0.525, 3.217e-2
-0.526, 3.221e-2
-0.527, 3.226e-2
-0.528, 3.231e-2
-0.529, 3.236e-2
-0.530, 3.240e-2
-0.531, 3.245e-2
-0.532, 3.250e-2
-0.533, 3.255e-2
-0.534, 3.259e-2
-0.535, 3.264e-2
-0.536, 3.269e-2
-0.537, 3.274e-2
-0.538, 3.278e-2
-0.539, 3.284e-2
-0.540, 3.288e-2
-0.541, 3.293e-2
-0.542, 3.297e-2
-0.543, 3.302e-2
-0.544, 3.307e-2
-0.545, 3.312e-2
-0.546, 3.316e-2
-0.547, 3.321e-2
-0.548, 3.326e-2
-0.549, 3.331e-2
-0.550, 3.335e-2
-0.551, 3.341e-2
-0.552, 3.345e-2
-0.553, 3.350e-2
-0.554, 3.354e-2
-0.555, 3.360e-2
-0.556, 3.364e-2
-0.557, 3.369e-2
-0.558, 3.374e-2
-0.559, 3.379e-2
-0.560, 3.383e-2
-0.561, 3.388e-2
-0.562, 3.393e-2
-0.563, 3.398e-2
-0.564, 3.403e-2
-0.565, 3.408e-2
-0.566, 3.413e-2
-0.567, 3.418e-2
-0.568, 3.423e-2
-0.569, 3.428e-2
-0.570, 3.433e-2
-0.571, 3.438e-2
-0.572, 3.443e-2
-0.573, 3.448e-2
-0.574, 3.453e-2
-0.575, 3.458e-2
-0.576, 3.463e-2
-0.577, 3.469e-2
-0.578, 3.474e-2
-0.579, 3.479e-2
-0.580, 3.483e-2
-0.581, 3.489e-2
-0.582, 3.494e-2
-0.583, 3.499e-2
-0.584, 3.504e-2
-0.585, 3.509e-2
-0.586, 3.514e-2
-0.587, 3.519e-2
-0.588, 3.524e-2
-0.589, 3.530e-2
-0.590, 3.535e-2
-0.591, 3.540e-2
-0.592, 3.545e-2
-0.593, 3.551e-2
-0.594, 3.555e-2
-0.595, 3.561e-2
-0.596, 3.565e-2
-0.597, 3.571e-2
-0.598, 3.576e-2
-0.599, 3.581e-2
-0.600, 3.586e-2
-0.601, 3.591e-2
-0.602, 3.596e-2
-0.603, 3.601e-2
-0.604, 3.606e-2
-0.605, 3.611e-2
-0.606, 3.616e-2
-0.607, 3.621e-2
-0.608, 3.626e-2
-0.609, 3.632e-2
-0.610, 3.637e-2
-0.611, 3.642e-2
-0.612, 3.647e-2
-0.613, 3.652e-2
-0.614, 3.657e-2
-0.615, 3.663e-2
-0.616, 3.667e-2
-0.617, 3.673e-2
-0.618, 3.678e-2
-0.619, 3.684e-2
-0.620, 3.688e-2
-0.621, 3.694e-2
-0.622, 3.699e-2
-0.623, 3.705e-2
-0.624, 3.709e-2
-0.625, 3.715e-2
-0.626, 3.719e-2
-0.627, 3.725e-2
-0.628, 3.729e-2
-0.629, 3.735e-2
-0.630, 3.740e-2
-0.631, 3.745e-2
-0.632, 3.750e-2
-0.633, 3.756e-2
-0.634, 3.760e-2
-0.635, 3.766e-2
-0.636, 3.770e-2
-0.637, 3.776e-2
-0.638, 3.781e-2
-0.639, 3.787e-2
-0.640, 3.792e-2
-0.641, 3.798e-2
-0.642, 3.803e-2
-0.643, 3.809e-2
-0.644, 3.814e-2
-0.645, 3.820e-2
-0.646, 3.825e-2
-0.647, 3.831e-2
-0.648, 3.837e-2
-0.649, 3.842e-2
-0.650, 3.847e-2
-0.651, 3.853e-2
-0.652, 3.858e-2
-0.653, 3.864e-2
-0.654, 3.868e-2
-0.655, 3.874e-2
-0.656, 3.880e-2
-0.657, 3.886e-2
-0.658, 3.892e-2
-0.659, 3.898e-2
-0.660, 3.904e-2
-0.661, 3.909e-2
-0.662, 3.915e-2
-0.663, 3.921e-2
-0.664, 3.926e-2
-0.665, 3.933e-2
-0.666, 3.938e-2
-0.667, 3.945e-2
-0.668, 3.950e-2
-0.669, 3.956e-2
-0.670, 3.963e-2
-0.671, 3.969e-2
-0.672, 3.974e-2
-0.673, 3.980e-2
-0.674, 3.987e-2
-0.675, 3.993e-2
-0.676, 3.998e-2
-0.677, 4.004e-2
-0.678, 4.010e-2
-0.679, 4.016e-2
-0.680, 4.022e-2
-0.681, 4.029e-2
-0.682, 4.034e-2
-0.683, 4.041e-2
-0.684, 4.047e-2
-0.685, 4.053e-2
-0.686, 4.059e-2
-0.687, 4.065e-2
-0.688, 4.071e-2
-0.689, 4.078e-2
-0.690, 4.083e-2
-0.691, 4.091e-2
-0.692, 4.097e-2
-0.693, 4.103e-2
-0.694, 4.109e-2
-0.695, 4.115e-2
-0.696, 4.122e-2
-0.697, 4.128e-2
-0.698, 4.134e-2
-0.699, 4.141e-2
-0.700, 4.146e-2
-0.701, 4.152e-2
-0.702, 4.158e-2
-0.703, 4.165e-2
-0.704, 4.169e-2
-0.705, 4.176e-2
-0.706, 4.184e-2
-0.707, 4.191e-2
-0.708, 4.197e-2
-0.709, 4.204e-2
-0.710, 4.210e-2
-0.711, 4.217e-2
-0.712, 4.224e-2
-0.713, 4.230e-2
-0.714, 4.237e-2
-0.715, 4.244e-2
-0.716, 4.250e-2
-0.717, 4.257e-2
-0.718, 4.264e-2
-0.719, 4.271e-2
-0.720, 4.277e-2
-0.721, 4.284e-2
-0.722, 4.290e-2
-0.723, 4.298e-2
-0.724, 4.304e-2
-0.725, 4.310e-2
-0.726, 4.316e-2
-0.727, 4.323e-2
-0.728, 4.331e-2
-0.729, 4.339e-2
-0.730, 4.346e-2
-0.731, 4.354e-2
-0.732, 4.360e-2
-0.733, 4.367e-2
-0.734, 4.375e-2
-0.735, 4.383e-2
-0.736, 4.391e-2
-0.737, 4.399e-2
-0.738, 4.406e-2
-0.739, 4.415e-2
-0.740, 4.422e-2
-0.741, 4.429e-2
-0.742, 4.438e-2
-0.743, 4.446e-2
-0.744, 4.452e-2
-0.745, 4.460e-2
-0.746, 4.469e-2
-0.747, 4.477e-2
-0.748, 4.482e-2
-0.749, 4.491e-2
-0.750, 4.497e-2
-0.751, 4.505e-2
-0.752, 4.511e-2
-0.753, 4.519e-2
-0.754, 4.527e-2
-0.755, 4.536e-2
-0.756, 4.543e-2
-0.757, 4.551e-2
-0.758, 4.559e-2
-0.759, 4.566e-2
-0.760, 4.573e-2
-0.761, 4.582e-2
-0.762, 4.589e-2
-0.763, 4.596e-2
-0.764, 4.603e-2
-0.765, 4.612e-2
-0.766, 4.620e-2
-0.767, 4.630e-2
-0.768, 4.638e-2
-0.769, 4.646e-2
-0.770, 4.652e-2
-0.771, 4.660e-2
-0.772, 4.668e-2
-0.773, 4.674e-2
-0.774, 4.681e-2
-0.775, 4.692e-2
-0.776, 4.702e-2
-0.777, 4.712e-2
-0.778, 4.719e-2
-0.779, 4.726e-2
-0.780, 4.734e-2
-0.781, 4.741e-2
-0.782, 4.749e-2
-0.783, 4.757e-2
-0.784, 4.764e-2
-0.785, 4.772e-2
-0.786, 4.778e-2
-0.787, 4.787e-2
-0.788, 4.794e-2
-0.789, 4.803e-2
-0.790, 4.809e-2
-0.791, 4.817e-2
-0.792, 4.825e-2
-0.793, 4.834e-2
-0.794, 4.842e-2
-0.795, 4.852e-2
-0.796, 4.859e-2
-0.797, 4.869e-2
-0.798, 4.878e-2
-0.799, 4.887e-2
-0.800, 4.879e-2
-0.799, 4.838e-2
-0.798, 4.804e-2
-0.797, 4.769e-2
-0.796, 4.734e-2
-0.795, 4.701e-2
-0.794, 4.671e-2
-0.793, 4.643e-2
-0.792, 4.611e-2
-0.791, 4.582e-2
-0.790, 4.554e-2
-0.789, 4.525e-2
-0.788, 4.496e-2
-0.787, 4.472e-2
-0.786, 4.449e-2
-0.785, 4.422e-2
-0.784, 4.398e-2
-0.783, 4.375e-2
-0.782, 4.354e-2
-0.781, 4.329e-2
-0.780, 4.301e-2
-0.779, 4.277e-2
-0.778, 4.252e-2
-0.777, 4.228e-2
-0.776, 4.203e-2
-0.775, 4.178e-2
-0.774, 4.155e-2
-0.773, 4.132e-2
-0.772, 4.108e-2
-0.771, 4.086e-2
-0.770, 4.062e-2
-0.769, 4.041e-2
-0.768, 4.018e-2
-0.767, 3.996e-2
-0.766, 3.973e-2
-0.765, 3.951e-2
-0.764, 3.929e-2
-0.763, 3.911e-2
-0.762, 3.889e-2
-0.761, 3.868e-2
-0.760, 3.846e-2
-0.759, 3.826e-2
-0.758, 3.804e-2
-0.757, 3.782e-2
-0.756, 3.761e-2
-0.755, 3.743e-2
-0.754, 3.722e-2
-0.753, 3.703e-2
-0.752, 3.684e-2
-0.751, 3.665e-2
-0.750, 3.645e-2
-0.749, 3.624e-2
-0.748, 3.604e-2
-0.747, 3.587e-2
-0.746, 3.566e-2
-0.745, 3.547e-2
-0.744, 3.530e-2
-0.743, 3.513e-2
-0.742, 3.495e-2
-0.741, 3.476e-2
-0.740, 3.457e-2
-0.739, 3.439e-2
-0.738, 3.420e-2
-0.737, 3.403e-2
-0.736, 3.385e-2
-0.735, 3.368e-2
-0.734, 3.349e-2
-0.733, 3.331e-2
-0.732, 3.312e-2
-0.731, 3.294e-2
-0.730, 3.276e-2
-0.729, 3.259e-2
-0.728, 3.242e-2
-0.727, 3.225e-2
-0.726, 3.207e-2
-0.725, 3.192e-2
-0.724, 3.175e-2
-0.723, 3.158e-2
-0.722, 3.143e-2
-0.721, 3.128e-2
-0.720, 3.111e-2
-0.719, 3.095e-2
-0.718, 3.079e-2
-0.717, 3.062e-2
-0.716, 3.045e-2
-0.715, 3.029e-2
-0.714, 3.012e-2
-0.713, 2.997e-2
-0.712, 2.981e-2
-0.711, 2.966e-2
-0.710, 2.949e-2
-0.709, 2.934e-2
-0.708, 2.918e-2
-0.707, 2.903e-2
-0.706, 2.887e-2
-0.705, 2.871e-2
-0.704, 2.855e-2
-0.703, 2.840e-2
-0.702, 2.824e-2
-0.701, 2.808e-2
-0.700, 2.792e-2
-0.699, 2.779e-2
-0.698, 2.764e-2
-0.697, 2.749e-2
-0.696, 2.734e-2
-0.695, 2.720e-2
-0.694, 2.705e-2
-0.693, 2.691e-2
-0.692, 2.676e-2
-0.691, 2.663e-2
-0.690, 2.649e-2
-0.689, 2.635e-2
-0.688, 2.621e-2
-0.687, 2.608e-2
-0.686, 2.594e-2
-0.685, 2.581e-2
-0.684, 2.567e-2
-0.683, 2.553e-2
-0.682, 2.539e-2
-0.681, 2.526e-2
-0.680, 2.511e-2
-0.679, 2.497e-2
-0.678, 2.483e-2
-0.677, 2.471e-2
-0.676, 2.456e-2
-0.675, 2.442e-2
-0.674, 2.429e-2
-0.673, 2.416e-2
-0.672, 2.402e-2
-0.671, 2.389e-2
-0.670, 2.378e-2
-0.669, 2.365e-2
-0.668, 2.352e-2
-0.667, 2.339e-2
-0.666, 2.326e-2
-0.665, 2.313e-2
-0.664, 2.300e-2
-0.663, 2.287e-2
-0.662, 2.274e-2
-0.661, 2.263e-2
-0.660, 2.249e-2
-0.659, 2.237e-2
-0.658, 2.224e-2
-0.657, 2.212e-2
-0.656, 2.200e-2
-0.655, 2.188e-2
-0.654, 2.175e-2
-0.653, 2.163e-2
-0.652, 2.150e-2
-0.651, 2.139e-2
-0.650, 2.126e-2
-0.649, 2.115e-2
-0.648, 2.102e-2
-0.647, 2.090e-2
-0.646, 2.077e-2
-0.645, 2.066e-2
-0.644, 2.054e-2
-0.643, 2.043e-2
-0.642, 2.031e-2
-0.641, 2.019e-2
-0.640, 2.007e-2
-0.639, 1.995e-2
-0.638, 1.983e-2
-0.637, 1.972e-2
-0.636, 1.959e-2
-0.635, 1.948e-2
-0.634, 1.936e-2
-0.633, 1.925e-2
-0.632, 1.914e-2
-0.631, 1.903e-2
-0.630, 1.891e-2
-0.629, 1.881e-2
-0.628, 1.869e-2
-0.627, 1.858e-2
-0.626, 1.847e-2
-0.625, 1.837e-2
-0.624, 1.826e-2
-0.623, 1.815e-2
-0.622, 1.805e-2
-0.621, 1.793e-2
-0.620, 1.782e-2
-0.619, 1.771e-2
-0.618, 1.760e-2
-0.617, 1.749e-2
-0.616, 1.739e-2
-0.615, 1.730e-2
-0.614, 1.718e-2
-0.613, 1.708e-2
-0.612, 1.698e-2
-0.611, 1.687e-2
-0.610, 1.676e-2
-0.609, 1.667e-2
-0.608, 1.656e-2
-0.607, 1.645e-2
-0.606, 1.634e-2
-0.605, 1.625e-2
-0.604, 1.614e-2
-0.603, 1.603e-2
-0.602, 1.592e-2
-0.601, 1.583e-2
-0.600, 1.572e-2
-0.599, 1.562e-2
-0.598, 1.551e-2
-0.597, 1.542e-2
-0.596, 1.532e-2
-0.595, 1.522e-2
-0.594, 1.511e-2
-0.593, 1.503e-2
-0.592, 1.493e-2
-0.591, 1.483e-2
-0.590, 1.472e-2
-0.589, 1.463e-2
-0.588, 1.454e-2
-0.587, 1.445e-2
-0.586, 1.435e-2
-0.585, 1.426e-2
-0.584, 1.416e-2
-0.583, 1.406e-2
-0.582, 1.396e-2
-0.581, 1.387e-2
-0.580, 1.377e-2
-0.579, 1.368e-2
-0.578, 1.357e-2
-0.577, 1.349e-2
-0.576, 1.339e-2
-0.575, 1.330e-2
-0.574, 1.320e-2
-0.573, 1.311e-2
-0.572, 1.301e-2
-0.571, 1.292e-2
-0.570, 1.282e-2
-0.569, 1.273e-2
-0.568, 1.264e-2
-0.567, 1.255e-2
-0.566, 1.246e-2
-0.565, 1.237e-2
-0.564, 1.227e-2
-0.563, 1.218e-2
-0.562, 1.210e-2
-0.561, 1.202e-2
-0.560, 1.192e-2
-0.559, 1.184e-2
-0.558, 1.175e-2
-0.557, 1.166e-2
-0.556, 1.157e-2
-0.555, 1.148e-2
-0.554, 1.139e-2
-0.553, 1.131e-2
-0.552, 1.122e-2
-0.551, 1.114e-2
-0.550, 1.105e-2
-0.549, 1.096e-2
-0.548, 1.087e-2
-0.547, 1.079e-2
-0.546, 1.069e-2
-0.545, 1.061e-2
-0.544, 1.052e-2
-0.543, 1.044e-2
-0.542, 1.035e-2
-0.541, 1.027e-2
-0.540, 1.019e-2
-0.539, 1.012e-2
-0.538, 1.003e-2
-0.537, 9.943e-3
-0.536, 9.855e-3
-0.535, 9.776e-3
-0.534, 9.690e-3
-0.533, 9.617e-3
-0.532, 9.530e-3
-0.531, 9.449e-3
-0.530, 9.365e-3
-0.529, 9.295e-3
-0.528, 9.217e-3
-0.527, 9.156e-3
-0.526, 9.078e-3
-0.525, 9.001e-3
-0.524, 8.919e-3
-0.523, 8.851e-3
-0.522, 8.773e-3
-0.521, 8.695e-3
-0.520, 8.613e-3
-0.519, 8.534e-3
-0.518, 8.453e-3
-0.517, 8.376e-3
-0.516, 8.293e-3
-0.515, 8.218e-3
-0.514, 8.132e-3
-0.513, 8.054e-3
-0.512, 7.968e-3
-0.511, 7.894e-3
-0.510, 7.813e-3
-0.509, 7.739e-3
-0.508, 7.660e-3
-0.507, 7.590e-3
-0.506, 7.508e-3
-0.505, 7.433e-3
-0.504, 7.356e-3
-0.503, 7.283e-3
-0.502, 7.203e-3
-0.501, 7.137e-3
-0.500, 7.058e-3
-0.499, 6.989e-3
-0.498, 6.914e-3
-0.497, 6.841e-3
-0.496, 6.761e-3
-0.495, 6.691e-3
-0.494, 6.610e-3
-0.493, 6.537e-3
-0.492, 6.460e-3
-0.491, 6.388e-3
-0.490, 6.311e-3
-0.489, 6.243e-3
-0.488, 6.168e-3
-0.487, 6.097e-3
-0.486, 6.021e-3
-0.485, 5.955e-3
-0.484, 5.882e-3
-0.483, 5.813e-3
-0.482, 5.735e-3
-0.481, 5.670e-3
-0.480, 5.593e-3
-0.479, 5.524e-3
-0.478, 5.451e-3
-0.477, 5.384e-3
-0.476, 5.305e-3
-0.475, 5.239e-3
-0.474, 5.165e-3
-0.473, 5.096e-3
-0.472, 5.024e-3
-0.471, 4.956e-3
-0.470, 4.879e-3
-0.469, 4.814e-3
-0.468, 4.741e-3
-0.467, 4.675e-3
-0.466, 4.598e-3
-0.465, 4.531e-3
-0.464, 4.459e-3
-0.463, 4.393e-3
-0.462, 4.321e-3
-0.461, 4.255e-3
-0.460, 4.179e-3
-0.459, 4.113e-3
-0.458, 4.041e-3
-0.457, 3.979e-3
-0.456, 3.907e-3
-0.455, 3.838e-3
-0.454, 3.766e-3
-0.453, 3.703e-3
-0.452, 3.637e-3
-0.451, 3.592e-3
-0.450, 3.523e-3
-0.449, 3.462e-3
-0.448, 3.392e-3
-0.447, 3.328e-3
-0.446, 3.259e-3
-0.445, 3.197e-3
-0.444, 3.126e-3
-0.443, 3.065e-3
-0.442, 2.994e-3
-0.441, 2.930e-3
-0.440, 2.863e-3
-0.439, 2.801e-3
-0.438, 2.732e-3
-0.437, 2.672e-3
-0.436, 2.602e-3
-0.435, 2.542e-3
-0.434, 2.474e-3
-0.433, 2.413e-3
-0.432, 2.349e-3
-0.431, 2.291e-3
-0.430, 2.225e-3
-0.429, 2.164e-3
-0.428, 2.095e-3
-0.427, 2.039e-3
-0.426, 1.970e-3
-0.425, 1.909e-3
-0.424, 1.842e-3
-0.423, 1.784e-3
-0.422, 1.717e-3
-0.421, 1.657e-3
-0.420, 1.590e-3
-0.419, 1.532e-3
-0.418, 1.464e-3
-0.417, 1.406e-3
-0.416, 1.340e-3
-0.415, 1.282e-3
-0.414, 1.217e-3
-0.413, 1.158e-3
-0.412, 1.094e-3
-0.411, 1.037e-3
-0.410, 9.671e-4
-0.409, 9.071e-4
-0.408, 8.426e-4
-0.407, 7.851e-4
-0.406, 7.214e-4
-0.405, 6.644e-4
-0.404, 5.987e-4
-0.403, 5.422e-4
-0.402, 4.786e-4
-0.401, 4.217e-4
-0.400, 3.563e-4
-0.399, 2.979e-4
-0.398, 2.361e-4
-0.397, 1.798e-4
-0.396, 1.161e-4
-0.395, 6.362e-5
-0.394, -1.571e-6
-0.393, -5.763e-5
-0.392, -1.200e-4
-0.391, -1.766e-4
-0.390, -2.390e-4
-0.389, -2.932e-4
-0.388, -3.561e-4
-0.387, -4.098e-4
-0.386, -4.732e-4
-0.385, -5.281e-4
-0.384, -5.909e-4
-0.383, -6.459e-4
-0.382, -7.074e-4
-0.381, -7.603e-4
-0.380, -8.226e-4
-0.379, -8.733e-4
-0.378, -9.381e-4
-0.377, -9.912e-4
-0.376, -1.051e-3
-0.375, -1.105e-3
-0.374, -1.167e-3
-0.373, -1.220e-3
-0.372, -1.281e-3
-0.371, -1.334e-3
-0.370, -1.395e-3
-0.369, -1.446e-3
-0.368, -1.504e-3
-0.367, -1.554e-3
-0.366, -1.613e-3
-0.365, -1.665e-3
-0.364, -1.724e-3
-0.363, -1.777e-3
-0.362, -1.835e-3
-0.361, -1.888e-3
-0.360, -1.949e-3
-0.359, -2.003e-3
-0.358, -2.062e-3
-0.357, -2.112e-3
-0.356, -2.172e-3
-0.355, -2.223e-3
-0.354, -2.281e-3
-0.353, -2.334e-3
-0.352, -2.393e-3
-0.351, -2.444e-3
-0.350, -2.502e-3
-0.349, -2.553e-3
-0.348, -2.613e-3
-0.347, -2.662e-3
-0.346, -2.721e-3
-0.345, -2.772e-3
-0.344, -2.830e-3
-0.343, -2.880e-3
-0.342, -2.935e-3
-0.341, -2.984e-3
-0.340, -3.043e-3
-0.339, -3.095e-3
-0.338, -3.152e-3
-0.337, -3.200e-3
-0.336, -3.257e-3
-0.335, -3.308e-3
-0.334, -3.365e-3
-0.333, -3.413e-3
-0.332, -3.472e-3
-0.331, -3.521e-3
-0.330, -3.578e-3
-0.329, -3.624e-3
-0.328, -3.677e-3
-0.327, -3.726e-3
-0.326, -3.782e-3
-0.325, -3.832e-3
-0.324, -3.889e-3
-0.323, -3.937e-3
-0.322, -3.993e-3
-0.321, -4.041e-3
-0.320, -4.097e-3
-0.319, -4.146e-3
-0.318, -4.200e-3
-0.317, -4.251e-3
-0.316, -4.306e-3
-0.315, -4.355e-3
-0.314, -4.410e-3
-0.313, -4.456e-3
-0.312, -4.511e-3
-0.311, -4.559e-3
-0.310, -4.615e-3
-0.309, -4.661e-3
-0.308, -4.719e-3
-0.307, -4.768e-3
-0.306, -4.823e-3
-0.305, -4.871e-3
-0.304, -4.924e-3
-0.303, -4.971e-3
-0.302, -5.027e-3
-0.301, -5.076e-3
-0.300, -5.130e-3
-0.299, -5.175e-3
-0.298, -5.230e-3
-0.297, -5.277e-3
-0.296, -5.329e-3
-0.295, -5.375e-3
-0.294, -5.428e-3
-0.293, -5.474e-3
-0.292, -5.526e-3
-0.291, -5.571e-3
-0.290, -5.626e-3
-0.289, -5.669e-3
-0.288, -5.723e-3
-0.287, -5.770e-3
-0.286, -5.824e-3
-0.285, -5.869e-3
-0.284, -5.921e-3
-0.283, -5.967e-3
-0.282, -6.021e-3
-0.281, -6.067e-3
-0.280, -6.119e-3
-0.279, -6.165e-3
-0.278, -6.217e-3
-0.277, -6.263e-3
-0.276, -6.317e-3
-0.275, -6.361e-3
-0.274, -6.414e-3
-0.273, -6.460e-3
-0.272, -6.514e-3
-0.271, -6.560e-3
-0.270, -6.609e-3
-0.269, -6.652e-3
-0.268, -6.705e-3
-0.267, -6.749e-3
-0.266, -6.801e-3
-0.265, -6.846e-3
-0.264, -6.897e-3
-0.263, -6.943e-3
-0.262, -6.996e-3
-0.261, -7.041e-3
-0.260, -7.091e-3
-0.259, -7.134e-3
-0.258, -7.187e-3
-0.257, -7.231e-3
-0.256, -7.285e-3
-0.255, -7.330e-3
-0.254, -7.380e-3
-0.253, -7.424e-3
-0.252, -7.477e-3
-0.251, -7.520e-3
-0.250, -7.572e-3
-0.249, -7.617e-3
-0.248, -7.664e-3
-0.247, -7.710e-3
-0.246, -7.761e-3
-0.245, -7.805e-3
-0.244, -7.855e-3
-0.243, -7.897e-3
-0.242, -7.948e-3
-0.241, -7.991e-3
-0.240, -8.041e-3
-0.239, -8.084e-3
-0.238, -8.136e-3
-0.237, -8.179e-3
-0.236, -8.231e-3
-0.235, -8.272e-3
-0.234, -8.321e-3
-0.233, -8.364e-3
-0.232, -8.415e-3
-0.231, -8.461e-3
-0.230, -8.511e-3
-0.229, -8.551e-3
-0.228, -8.601e-3
-0.227, -8.643e-3
-0.226, -8.694e-3
-0.225, -8.736e-3
-0.224, -8.783e-3
-0.223, -8.824e-3
-0.222, -8.874e-3
-0.221, -8.916e-3
-0.220, -8.968e-3
-0.219, -9.007e-3
-0.218, -9.057e-3
-0.217, -9.098e-3
-0.216, -9.146e-3
-0.215, -9.189e-3
-0.214, -9.238e-3
-0.213, -9.278e-3
-0.212, -9.328e-3
-0.211, -9.370e-3
-0.210, -9.418e-3
-0.209, -9.458e-3
-0.208, -9.506e-3
-0.207, -9.548e-3
-0.206, -9.596e-3
-0.205, -9.639e-3
-0.204, -9.690e-3
-0.203, -9.731e-3
-0.202, -9.778e-3
-0.201, -9.817e-3
-0.200, -9.866e-3
-0.199, -9.909e-3
-0.198, -9.959e-3
-0.197, -9.998e-3
-0.196, -1.004e-2
-0.195, -1.008e-2
-0.194, -1.013e-2
-0.193, -1.017e-2
-0.192, -1.022e-2
-0.191, -1.026e-2
-0.190, -1.031e-2
-0.189, -1.035e-2
-0.188, -1.040e-2
-0.187, -1.044e-2
-0.186, -1.049e-2
-0.185, -1.053e-2
-0.184, -1.058e-2
-0.183, -1.061e-2
-0.182, -1.066e-2
-0.181, -1.070e-2
-0.180, -1.075e-2
-0.179, -1.079e-2
-0.178, -1.084e-2
-0.177, -1.088e-2
-0.176, -1.092e-2
-0.175, -1.096e-2
-0.174, -1.101e-2
-0.173, -1.105e-2
-0.172, -1.110e-2
-0.171, -1.114e-2
-0.170, -1.119e-2
-0.169, -1.123e-2
-0.168, -1.127e-2
-0.167, -1.131e-2
-0.166, -1.136e-2
-0.165, -1.140e-2
-0.164, -1.145e-2
-0.163, -1.148e-2
-0.162, -1.153e-2
-0.161, -1.157e-2
-0.160, -1.162e-2
-0.159, -1.166e-2
-0.158, -1.171e-2
-0.157, -1.174e-2
-0.156, -1.179e-2
-0.155, -1.183e-2
-0.154, -1.188e-2
-0.153, -1.192e-2
-0.152, -1.196e-2
-0.151, -1.200e-2
-0.150, -1.205e-2
-0.149, -1.209e-2
-0.148, -1.213e-2
-0.147, -1.217e-2
-0.146, -1.222e-2
-0.145, -1.225e-2
-0.144, -1.230e-2
-0.143, -1.234e-2
-0.142, -1.239e-2
-0.141, -1.243e-2
-0.140, -1.247e-2
-0.139, -1.251e-2
-0.138, -1.256e-2
-0.137, -1.259e-2
-0.136, -1.264e-2
-0.135, -1.268e-2
-0.134, -1.272e-2
-0.133, -1.276e-2
-0.132, -1.281e-2
-0.131, -1.285e-2
-0.130, -1.289e-2
-0.129, -1.293e-2
-0.128, -1.298e-2
-0.127, -1.301e-2
-0.126, -1.306e-2
-0.125, -1.310e-2
-0.124, -1.314e-2
-0.123, -1.318e-2
-0.122, -1.322e-2
-0.121, -1.326e-2
-0.120, -1.331e-2
-0.119, -1.334e-2
-0.118, -1.339e-2
-0.117, -1.342e-2
-0.116, -1.347e-2
-0.115, -1.351e-2
-0.114, -1.355e-2
-0.113, -1.359e-2
-0.112, -1.363e-2
-0.111, -1.367e-2
-0.110, -1.371e-2
-0.109, -1.375e-2
-0.108, -1.380e-2
-0.107, -1.384e-2
-0.106, -1.388e-2
-0.105, -1.392e-2
-0.104, -1.396e-2
-0.103, -1.400e-2
-0.102, -1.405e-2
-0.101, -1.408e-2
-0.100, -1.413e-2
-0.099, -1.416e-2
-0.098, -1.421e-2
-0.097, -1.425e-2
-0.096, -1.429e-2
-0.095, -1.433e-2
-0.094, -1.437e-2
-0.093, -1.441e-2
-0.092, -1.445e-2
-0.091, -1.449e-2
-0.090, -1.453e-2
-0.089, -1.457e-2
-0.088, -1.461e-2
-0.087, -1.465e-2
-0.086, -1.470e-2
-0.085, -1.473e-2
-0.084, -1.478e-2
-0.083, -1.481e-2
-0.082, -1.486e-2
-0.081, -1.490e-2
-0.080, -1.494e-2
-0.079, -1.498e-2
-0.078, -1.502e-2
-0.077, -1.506e-2
-0.076, -1.510e-2
-0.075, -1.514e-2
-0.074, -1.518e-2
-0.073, -1.522e-2
-0.072, -1.526e-2
-0.071, -1.530e-2
-0.070, -1.535e-2
-0.069, -1.538e-2
-0.068, -1.543e-2
-0.067, -1.546e-2
-0.066, -1.551e-2
-0.065, -1.554e-2
-0.064, -1.559e-2
-0.063, -1.562e-2
-0.062, -1.566e-2
-0.061, -1.570e-2
-0.060, -1.575e-2
-0.059, -1.578e-2
-0.058, -1.582e-2
-0.057, -1.586e-2
-0.056, -1.590e-2
-0.055, -1.594e-2
-0.054, -1.598e-2
-0.053, -1.602e-2
-0.052, -1.606e-2
-0.051, -1.610e-2
-0.050, -1.614e-2
-0.049, -1.618e-2
-0.048, -1.622e-2
-0.047, -1.626e-2
-0.046, -1.630e-2
-0.045, -1.633e-2
-0.044, -1.638e-2
-0.043, -1.641e-2
-0.042, -1.646e-2
-0.041, -1.649e-2
-0.040, -1.653e-2
-0.039, -1.657e-2
-0.038, -1.661e-2
-0.037, -1.665e-2
-0.036, -1.669e-2
-0.035, -1.673e-2
-0.034, -1.677e-2
-0.033, -1.681e-2
-0.032, -1.685e-2
-0.031, -1.689e-2
-0.030, -1.693e-2
-0.029, -1.696e-2
-0.028, -1.701e-2
-0.027, -1.704e-2
-0.026, -1.709e-2
-0.025, -1.712e-2
-0.024, -1.716e-2
-0.023, -1.720e-2
-0.022, -1.724e-2
-0.021, -1.727e-2
-0.020, -1.732e-2
-0.019, -1.735e-2
-0.018, -1.739e-2
-0.017, -1.743e-2
-0.016, -1.747e-2
-0.015, -1.750e-2
-0.014, -1.755e-2
-0.013, -1.758e-2
-0.012, -1.763e-2
-0.011, -1.766e-2
-0.010, -1.770e-2
-0.009, -1.774e-2
-0.008, -1.778e-2
-0.007, -1.782e-2
-0.006, -1.786e-2
-0.005, -1.789e-2
-0.004, -1.794e-2
-0.003, -1.797e-2
-0.002, -1.802e-2
-0.001, -1.805e-2
-0.000, -1.810e-2
0.001, -1.814e-2
0.002, -1.818e-2
0.003, -1.821e-2
0.004, -1.825e-2
0.005, -1.829e-2
0.006, -1.834e-2
0.007, -1.837e-2
0.008, -1.842e-2
0.009, -1.845e-2
0.010, -1.849e-2
0.011, -1.853e-2
0.012, -1.857e-2
0.013, -1.860e-2
0.014, -1.864e-2
0.015, -1.868e-2
0.016, -1.872e-2
0.017, -1.875e-2
0.018, -1.879e-2
0.019, -1.883e-2
0.020, -1.887e-2
0.021, -1.890e-2
0.022, -1.895e-2
0.023, -1.898e-2
0.024, -1.902e-2
0.025, -1.906e-2
0.026, -1.910e-2
0.027, -1.913e-2
0.028, -1.918e-2
0.029, -1.921e-2
0.030, -1.925e-2
0.031, -1.928e-2
0.032, -1.932e-2
0.033, -1.935e-2
0.034, -1.939e-2
0.035, -1.942e-2
0.036, -1.947e-2
0.037, -1.950e-2
0.038, -1.954e-2
0.039, -1.958e-2
0.040, -1.962e-2
0.041, -1.965e-2
0.042, -1.969e-2
0.043, -1.973e-2
0.044, -1.977e-2
0.045, -1.981e-2
0.046, -1.985e-2
0.047, -1.988e-2
0.048, -1.992e-2
0.049, -1.996e-2
0.050, -2.000e-2
0.051, -2.004e-2
0.052, -2.008e-2
0.053, -2.011e-2
0.054, -2.015e-2
0.055, -2.019e-2
0.056, -2.023e-2
0.057, -2.026e-2
0.058, -2.031e-2
0.059, -2.034e-2
0.060, -2.038e-2
0.061, -2.041e-2
0.062, -2.045e-2
0.063, -2.049e-2
0.064, -2.053e-2
0.065, -2.057e-2
0.066, -2.061e-2
0.067, -2.064e-2
0.068, -2.068e-2
0.069, -2.072e-2
0.070, -2.076e-2
0.071, -2.080e-2
0.072, -2.084e-2
0.073, -2.087e-2
0.074, -2.091e-2
0.075, -2.095e-2
0.076, -2.099e-2
0.077, -2.102e-2
0.078, -2.106e-2
0.079, -2.110e-2
0.080, -2.114e-2
0.081, -2.117e-2
0.082, -2.121e-2
0.083, -2.124e-2
0.084, -2.129e-2
0.085, -2.132e-2
0.086, -2.136e-2
0.087, -2.140e-2
0.088, -2.144e-2
0.089, -2.147e-2
0.090, -2.151e-2
0.091, -2.155e-2
0.092, -2.159e-2
0.093, -2.162e-2
0.094, -2.166e-2
0.095, -2.170e-2
0.096, -2.174e-2
0.097, -2.178e-2
0.098, -2.182e-2
0.099, -2.185e-2
0.100, -2.189e-2
0.101, -2.193e-2
0.102, -2.197e-2
0.103, -2.201e-2
0.104, -2.205e-2
0.105, -2.208e-2
0.106, -2.212e-2
0.107, -2.216e-2
0.108, -2.220e-2
0.109, -2.224e-2
0.110, -2.228e-2
0.111, -2.231e-2
0.112, -2.235e-2
0.113, -2.238e-2
0.114, -2.243e-2
0.115, -2.246e-2
0.116, -2.250e-2
0.117, -2.254e-2
0.118, -2.258e-2
0.119, -2.261e-2
0.120, -2.265e-2
0.121, -2.269e-2
0.122, -2.273e-2
0.123, -2.277e-2
0.124, -2.281e-2
0.125, -2.284e-2
0.126, -2.288e-2
0.127, -2.292e-2
0.128, -2.296e-2
0.129, -2.300e-2
0.130, -2.304e-2
0.131, -2.307e-2
0.132, -2.312e-2
0.133, -2.316e-2
0.134, -2.320e-2
0.135, -2.324e-2
0.136, -2.328e-2
0.137, -2.331e-2
0.138, -2.335e-2
0.139, -2.339e-2
0.140, -2.343e-2
0.141, -2.347e-2
0.142, -2.351e-2
0.143, -2.354e-2
0.144, -2.358e-2
0.145, -2.362e-2
0.146, -2.366e-2
0.147, -2.370e-2
0.148, -2.374e-2
0.149, -2.377e-2
0.150, -2.382e-2
0.151, -2.385e-2
0.152, -2.389e-2
0.153, -2.393e-2
0.154, -2.398e-2
0.155, -2.401e-2
0.156, -2.405e-2
0.157, -2.409e-2
0.158, -2.413e-2
0.159, -2.417e-2
0.160, -2.421e-2
0.161, -2.425e-2
0.162, -2.429e-2
0.163, -2.432e-2
0.164, -2.437e-2
0.165, -2.440e-2
0.166, -2.444e-2
0.167, -2.448e-2
0.168, -2.452e-2
0.169, -2.455e-2
0.170, -2.460e-2
0.171, -2.463e-2
0.172, -2.468e-2
0.173, -2.472e-2
0.174, -2.476e-2
0.175, -2.479e-2
0.176, -2.484e-2
0.177, -2.487e-2
0.178, -2.492e-2
0.179, -2.495e-2
0.180, -2.500e-2
0.181, -2.503e-2
0.182, -2.507e-2
0.183, -2.511e-2
0.184, -2.515e-2
0.185, -2.518e-2
0.186, -2.523e-2
0.187, -2.526e-2
0.188, -2.531e-2
0.189, -2.535e-2
0.190, -2.539e-2
0.191, -2.543e-2
0.192, -2.547e-2
0.193, -2.551e-2
0.194, -2.555e-2
0.195, -2.559e-2
0.196, -2.563e-2
0.197, -2.567e-2
0.198, -2.571e-2
0.199, -2.575e-2
0.200, -2.579e-2
0.201, -2.582e-2
0.202, -2.587e-2
0.203, -2.590e-2
0.204, -2.595e-2
0.205, -2.599e-2
0.206, -2.603e-2
0.207, -2.607e-2
0.208, -2.611e-2
0.209, -2.615e-2
0.210, -2.619e-2
0.211, -2.622e-2
0.212, -2.627e-2
0.213, -2.631e-2
0.214, -2.635e-2
0.215, -2.639e-2
0.216, -2.643e-2
0.217, -2.647e-2
0.218, -2.651e-2
0.219, -2.655e-2
0.220, -2.659e-2
0.221, -2.663e-2
0.222, -2.667e-2
0.223, -2.671e-2
0.224, -2.675e-2
0.225, -2.679e-2
0.226, -2.683e-2
0.227, -2.687e-2
0.228, -2.691e-2
0.229, -2.695e-2
0.230, -2.699e-2
0.231, -2.703e-2
0.232, -2.707e-2
0.233, -2.711e-2
0.234, -2.715e-2
0.235, -2.719e-2
0.236, -2.723e-2
0.237, -2.727e-2
0.238, -2.732e-2
0.239, -2.735e-2
0.240, -2.739e-2
0.241, -2.743e-2
0.242, -2.747e-2
0.243, -2.751e-2
0.244, -2.755e-2
0.245, -2.759e-2
0.246, -2.763e-2
0.247, -2.767e-2
0.248, -2.771e-2
0.249, -2.775e-2
0.250, -2.779e-2
0.251, -2.783e-2
0.252, -2.787e-2
0.253, -2.791e-2
0.254, -2.795e-2
0.255, -2.799e-2
0.256, -2.803e-2
0.257, -2.807e-2
0.258, -2.811e-2
0.259, -2.814e-2
0.260, -2.819e-2
0.261, -2.822e-2
0.262, -2.827e-2
0.263, -2.830e-2
0.264, -2.834e-2
0.265, -2.838e-2
0.266, -2.842e-2
0.267, -2.846e-2
0.268, -2.850e-2
0.269, -2.854e-2
0.270, -2.858e-2
0.271, -2.862e-2
0.272, -2.866e-2
0.273, -2.869e-2
0.274, -2.873e-2
0.275, -2.877e-2
0.276, -2.881e-2
0.277, -2.885e-2
0.278, -2.889e-2
0.279, -2.892e-2
0.280, -2.897e-2
0.281, -2.900e-2
0.282, -2.904e-2
0.283, -2.908e-2
0.284, -2.912e-2
0.285, -2.915e-2
0.286, -2.919e-2
0.287, -2.923e-2
0.288, -2.927e-2
0.289, -2.931e-2
0.290, -2.935e-2
0.291, -2.938e-2
0.292, -2.943e-2
0.293, -2.946e-2
0.294, -2.950e-2
0.295, -2.954e-2
0.296, -2.958e-2
0.297, -2.961e-2
0.298, -2.966e-2
0.299, -2.969e-2
0.300, -2.973e-2
0.301, -2.977e-2
0.302, -2.981e-2
0.303, -2.984e-2
0.304, -2.988e-2
0.305, -2.992e-2
0.306, -2.996e-2
0.307, -3.000e-2
0.308, -3.004e-2
0.309, -3.007e-2
0.310, -3.012e-2
0.311, -3.015e-2
0.312, -3.019e-2
0.313, -3.022e-2
0.314, -3.027e-2
0.315, -3.030e-2
0.316, -3.034e-2
0.317, -3.038e-2
0.318, -3.042e-2
0.319, -3.045e-2
0.320, -3.049e-2
0.321, -3.052e-2
0.322, -3.057e-2
0.323, -3.060e-2
0.324, -3.064e-2
0.325, -3.067e-2
0.326, -3.072e-2
0.327, -3.075e-2
0.328, -3.079e-2
0.329, -3.083e-2
0.330, -3.087e-2
0.331, -3.090e-2
0.332, -3.094e-2
0.333, -3.098e-2
0.334, -3.102e-2
0.335, -3.106e-2
0.336, -3.110e-2
0.337, -3.113e-2
0.338, -3.117e-2
0.339, -3.120e-2
0.340, -3.125e-2
0.341, -3.128e-2
0.342, -3.132e-2
0.343, -3.135e-2
0.344, -3.139e-2
0.345, -3.143e-2
0.346, -3.147e-2
0.347, -3.150e-2
0.348, -3.154e-2
0.349, -3.158e-2
0.350, -3.162e-2
0.351, -3.165e-2
0.352, -3.170e-2
0.353, -3.173e-2
0.354, -3.177e-2
0.355, -3.180e-2
0.356, -3.184e-2
0.357, -3.188e-2
0.358, -3.192e-2
0.359, -3.195e-2
0.360, -3.200e-2
0.361, -3.202e-2
0.362, -3.207e-2
0.363, -3.210e-2
0.364, -3.214e-2
0.365, -3.218e-2
0.366, -3.221e-2
0.367, -3.225e-2
0.368, -3.229e-2
0.369, -3.232e-2
0.370, -3.236e-2
0.371, -3.239e-2
0.372, -3.244e-2
0.373, -3.247e-2
0.374, -3.251e-2
0.375, -3.254e-2
0.376, -3.258e-2
0.377, -3.262e-2
0.378, -3.266e-2
0.379, -3.269e-2
0.380, -3.273e-2
0.381, -3.276e-2
0.382, -3.280e-2
0.383, -3.284e-2
0.384, -3.288e-2
0.385, -3.291e-2
0.386, -3.295e-2
0.387, -3.298e-2
0.388, -3.302e-2
0.389, -3.305e-2
0.390, -3.310e-2
0.391, -3.313e-2
0.392, -3.317e-2
0.393, -3.320e-2
0.394, -3.324e-2
0.395, -3.327e-2
0.396, -3.332e-2
0.397, -3.335e-2
0.398, -3.339e-2
0.399, -3.342e-2
0.400, -3.346e-2
0.401, -3.349e-2
0.402, -3.354e-2
0.403, -3.357e-2
0.404, -3.361e-2
0.405, -3.364e-2
0.406, -3.368e-2
0.407, -3.372e-2
0.408, -3.376e-2
0.409, -3.379e-2
0.410, -3.384e-2
0.411, -3.387e-2
0.412, -3.391e-2
0.413, -3.395e-2
0.414, -3.398e-2
0.415, -3.402e-2
0.416, -3.406e-2
0.417, -3.409e-2
0.418, -3.413e-2
0.419, -3.416e-2
0.420, -3.420e-2
0.421, -3.424e-2
0.422, -3.428e-2
0.423, -3.431e-2
0.424, -3.435e-2
0.425, -3.438e-2
0.426, -3.442e-2
0.427, -3.445e-2
0.428, -3.450e-2
0.429, -3.453e-2
0.430, -3.457e-2
0.431, -3.460e-2
0.432, -3.464e-2
0.433, -3.468e-2
0.434, -3.472e-2
0.435, -3.476e-2
0.436, -3.480e-2
0.437, -3.483e-2
0.438, -3.487e-2
0.439, -3.491e-2
0.440, -3.494e-2
0.441, -3.498e-2
0.442, -3.502e-2
0.443, -3.505e-2
0.444, -3.509e-2
0.445, -3.512e-2
0.446, -3.517e-2
0.447, -3.520e-2
0.448, -3.524e-2
0.449, -3.528e-2
0.450, -3.532e-2
0.451, -3.535e-2
0.452, -3.540e-2
0.453, -3.543e-2
0.454, -3.547e-2
0.455, -3.551e-2
0.456, -3.555e-2
0.457, -3.558e-2
0.458, -3.563e-2
0.459, -3.566e-2
0.460, -3.570e-2
0.461, -3.574e-2
0.462, -3.578e-2
0.463, -3.582e-2
0.464, -3.586e-2
0.465, -3.590e-2
0.466, -3.594e-2
0.467, -3.598e-2
0.468, -3.602e-2
0.469, -3.605e-2
0.470, -3.609e-2
0.471, -3.613e-2
0.472, -3.618e-2
0.473, -3.622e-2
0.474, -3.626e-2
0.475, -3.629e-2
0.476, -3.633e-2
0.477, -3.637e-2
0.478, -3.641e-2
0.479, -3.645e-2
0.480, -3.649e-2
0.481, -3.653e-2
0.482, -3.657e-2
0.483, -3.660e-2
0.484, -3.665e-2
0.485, -3.668e-2
0.486, -3.673e-2
0.487, -3.676e-2
0.488, -3.680e-2
0.489, -3.684e-2
0.490, -3.688e-2
0.491, -3.692e-2
0.492, -3.696e-2
0.493, -3.700e-2
0.494, -3.704e-2
0.495, -3.707e-2
0.496, -3.711e-2
0.497, -3.715e-2
0.498, -3.719e-2
0.499, -3.723e-2
0.500, -3.727e-2
0.501, -3.731e-2
0.502, -3.736e-2
0.503, -3.739e-2
0.504, -3.743e-2
0.505, -3.747e-2
0.506, -3.751e-2
0.507, -3.755e-2
0.508, -3.759e-2
0.509, -3.763e-2
0.510, -3.767e-2
0.511, -3.771e-2
0.512, -3.775e-2
0.513, -3.778e-2
0.514, -3.783e-2
0.515, -3.786e-2
0.516, -3.790e-2
0.517, -3.793e-2
0.518, -3.798e-2
0.519, -3.802e-2
0.520, -3.806e-2
0.521, -3.809e-2
0.522, -3.814e-2
0.523, -3.818e-2
0.524, -3.822e-2
0.525, -3.826e-2
0.526, -3.830e-2
0.527, -3.833e-2
0.528, -3.838e-2
0.529, -3.841e-2
0.530, -3.845e-2
0.531, -3.849e-2
0.532, -3.853e-2
0.533, -3.857e-2
0.534, -3.861e-2
0.535, -3.865e-2
0.536, -3.869e-2
0.537, -3.872e-2
0.538, -3.876e-2
0.539, -3.880e-2
0.540, -3.884e-2
0.541, -3.888e-2
0.542, -3.892e-2
0.543, -3.896e-2
0.544, -3.900e-2
0.545, -3.903e-2
0.546, -3.907e-2
0.547, -3.912e-2
0.548, -3.917e-2
0.549, -3.921e-2
0.550, -3.925e-2
0.551, -3.928e-2
0.552, -3.932e-2
0.553, -3.935e-2
0.554, -3.939e-2
0.555, -3.943e-2
0.556, -3.947e-2
0.557, -3.950e-2
0.558, -3.954e-2
0.559, -3.957e-2
0.560, -3.961e-2
0.561, -3.965e-2
0.562, -3.969e-2
0.563, -3.972e-2
0.564, -3.976e-2
0.565, -3.980e-2
0.566, -3.983e-2
0.567, -3.987e-2
0.568, -3.990e-2
0.569, -3.994e-2
0.570, -3.997e-2
0.571, -4.000e-2
0.572, -4.004e-2
0.573, -4.007e-2
0.574, -4.011e-2
0.575, -4.014e-2
0.576, -4.017e-2
0.577, -4.020e-2
0.578, -4.024e-2
0.579, -4.026e-2
0.580, -4.030e-2
0.581, -4.033e-2
0.582, -4.036e-2
0.583, -4.040e-2
0.584, -4.043e-2
0.585, -4.045e-2
0.586, -4.049e-2
0.587, -4.052e-2
0.588, -4.055e-2
0.589, -4.058e-2
0.590, -4.061e-2
0.591, -4.064e-2
0.592, -4.067e-2
0.593, -4.070e-2
0.594, -4.073e-2
0.595, -4.075e-2
0.596, -4.079e-2
0.597, -4.081e-2
0.598, -4.084e-2
0.599, -4.086e-2
0.600, -4.089e-2
0.601, -4.092e-2
0.602, -4.095e-2
0.603, -4.097e-2
0.604, -4.100e-2
0.605, -4.103e-2
0.606, -4.105e-2
0.607, -4.107e-2
0.608, -4.111e-2
0.609, -4.113e-2
0.610, -4.115e-2
0.611, -4.118e-2
0.612, -4.121e-2
0.613, -4.123e-2
0.614, -4.126e-2
0.615, -4.128e-2
0.616, -4.130e-2
0.617, -4.132e-2
0.618, -4.136e-2
0.619, -4.138e-2
0.620, -4.141e-2
0.621, -4.143e-2
0.622, -4.145e-2
0.623, -4.147e-2
0.624, -4.149e-2
0.625, -4.151e-2
0.626, -4.154e-2
0.627, -4.156e-2
0.628, -4.159e-2
0.629, -4.160e-2
0.630, -4.163e-2
0.631, -4.165e-2
0.632, -4.167e-2
0.633, -4.169e-2
0.634, -4.172e-2
0.635, -4.173e-2
0.636, -4.175e-2
0.637, -4.177e-2
0.638, -4.180e-2
0.639, -4.181e-2
0.640, -4.184e-2
0.641, -4.185e-2
0.642, -4.188e-2
0.643, -4.189e-2
0.644, -4.192e-2
0.645, -4.193e-2
0.646, -4.195e-2
0.647, -4.198e-2
0.648, -4.200e-2
0.649, -4.201e-2
0.650, -4.203e-2
0.651, -4.205e-2
0.652, -4.207e-2
0.653, -4.209e-2
0.654, -4.211e-2
0.655, -4.212e-2
0.656, -4.214e-2
0.657, -4.215e-2
0.658, -4.218e-2
0.659, -4.219e-2
0.660, -4.221e-2
0.661, -4.223e-2
0.662, -4.225e-2
0.663, -4.226e-2
0.664, -4.228e-2
0.665, -4.230e-2
0.666, -4.232e-2
0.667, -4.234e-2
0.668, -4.236e-2
0.669, -4.237e-2
0.670, -4.239e-2
0.671, -4.240e-2
0.672, -4.242e-2
0.673, -4.244e-2
0.674, -4.246e-2
0.675, -4.247e-2
0.676, -4.249e-2
0.677, -4.251e-2
0.678, -4.252e-2
0.679, -4.254e-2
0.680, -4.255e-2
0.681, -4.257e-2
0.682, -4.259e-2
0.683, -4.260e-2
0.684, -4.262e-2
0.685, -4.264e-2
0.686, -4.266e-2
0.687, -4.267e-2
0.688, -4.269e-2
0.689, -4.271e-2
0.690, -4.273e-2
0.691, -4.274e-2
0.692, -4.276e-2
0.693, -4.277e-2
0.694, -4.279e-2
0.695, -4.280e-2
0.696, -4.282e-2
0.697, -4.284e-2
0.698, -4.286e-2
0.699, -4.287e-2
0.700, -4.289e-2
0.701, -4.290e-2
0.702, -4.292e-2
0.703, -4.294e-2
0.704, -4.296e-2
0.705, -4.297e-2
0.706, -4.299e-2
0.707, -4.301e-2
0.708, -4.303e-2
0.709, -4.304e-2
0.710, -4.306e-2
0.711, -4.308e-2
0.712, -4.310e-2
0.713, -4.311e-2
0.714, -4.313e-2
0.715, -4.314e-2
0.716, -4.316e-2
0.717, -4.318e-2
0.718, -4.320e-2
0.719, -4.321e-2
0.720, -4.323e-2
0.721, -4.324e-2
0.722, -4.326e-2
0.723, -4.328e-2
0.724, -4.330e-2
0.725, -4.331e-2
0.726, -4.333e-2
0.727, -4.335e-2
0.728, -4.336e-2
0.729, -4.340e-2
0.730, -4.342e-2
0.731, -4.343e-2
0.732, -4.345e-2
0.733, -4.346e-2
0.734, -4.348e-2
0.735, -4.350e-2
0.736, -4.352e-2
0.737, -4.353e-2
0.738, -4.355e-2
0.739, -4.356e-2
0.740, -4.358e-2
0.741, -4.360e-2
0.742, -4.362e-2
0.743, -4.363e-2
0.744, -4.365e-2
0.745, -4.367e-2
0.746, -4.369e-2
0.747, -4.370e-2
0.748, -4.372e-2
0.749, -4.374e-2
0.750, -4.375e-2
0.751, -4.377e-2
0.752, -4.380e-2
0.753, -4.381e-2
0.754, -4.383e-2
0.755, -4.385e-2
0.756, -4.387e-2
0.757, -4.388e-2
0.758, -4.390e-2
0.759, -4.391e-2
0.760, -4.393e-2
0.761, -4.395e-2
0.762, -4.397e-2
0.763, -4.398e-2
0.764, -4.400e-2
0.765, -4.402e-2
0.766, -4.404e-2
0.767, -4.406e-2
0.768, -4.408e-2
0.769, -4.410e-2
0.770, -4.412e-2
0.771, -4.413e-2
0.772, -4.415e-2
0.773, -4.417e-2
0.774, -4.419e-2
0.775, -4.421e-2
0.776, -4.423e-2
0.777, -4.425e-2
0.778, -4.427e-2
0.779, -4.428e-2
0.780, -4.430e-2
0.781, -4.432e-2
0.782, -4.434e-2
0.783, -4.436e-2
0.784, -4.438e-2
0.785, -4.440e-2
0.786, -4.441e-2
0.787, -4.443e-2
0.788, -4.446e-2
0.789, -4.448e-2
0.790, -4.450e-2
0.791, -4.451e-2
0.792, -4.454e-2
0.793, -4.455e-2
0.794, -4.458e-2
0.795, -4.462e-2
0.796, -4.465e-2
0.797, -4.465e-2
0.798, -4.467e-2
0.799, -4.469e-2
0.800, -4.456e-2
0.799, -4.417e-2
0.798, -4.384e-2
0.797, -4.352e-2
0.796, -4.323e-2
0.795, -4.294e-2
0.794, -4.267e-2
0.793, -4.240e-2
0.792, -4.215e-2
0.791, -4.190e-2
0.790, -4.165e-2
0.789, -4.141e-2
0.788, -4.118e-2
0.787, -4.094e-2
0.786, -4.072e-2
0.785, -4.049e-2
0.784, -4.027e-2
0.783, -4.006e-2
0.782, -3.984e-2
0.781, -3.963e-2
0.780, -3.942e-2
0.779, -3.921e-2
0.778, -3.901e-2
0.777, -3.880e-2
0.776, -3.861e-2
0.775, -3.840e-2
0.774, -3.821e-2
0.773, -3.802e-2
0.772, -3.783e-2
0.771, -3.763e-2
0.770, -3.745e-2
0.769, -3.726e-2
0.768, -3.707e-2
0.767, -3.689e-2
0.766, -3.672e-2
0.765, -3.653e-2
0.764, -3.636e-2
0.763, -3.618e-2
0.762, -3.601e-2
0.761, -3.583e-2
0.760, -3.566e-2
0.759, -3.548e-2
0.758, -3.532e-2
0.757, -3.515e-2
0.756, -3.498e-2
0.755, -3.482e-2
0.754, -3.466e-2
0.753, -3.450e-2
0.752, -3.434e-2
0.751, -3.417e-2
0.750, -3.401e-2
0.749, -3.385e-2
0.748, -3.369e-2
0.747, -3.353e-2
0.746, -3.338e-2
0.745, -3.322e-2
0.744, -3.307e-2
0.743, -3.292e-2
0.742, -3.277e-2
0.741, -3.261e-2
0.740, -3.246e-2
0.739, -3.231e-2
0.738, -3.217e-2
0.737, -3.202e-2
0.736, -3.187e-2
0.735, -3.172e-2
0.734, -3.158e-2
0.733, -3.143e-2
0.732, -3.129e-2
0.731, -3.115e-2
0.730, -3.100e-2
0.729, -3.086e-2
0.728, -3.072e-2
0.727, -3.057e-2
0.726, -3.044e-2
0.725, -3.030e-2
0.724, -3.016e-2
0.723, -3.002e-2
0.722, -2.988e-2
0.721, -2.975e-2
0.720, -2.961e-2
0.719, -2.948e-2
0.718, -2.935e-2
0.717, -2.921e-2
0.716, -2.908e-2
0.715, -2.895e-2
0.714, -2.882e-2
0.713, -2.868e-2
0.712, -2.856e-2
0.711, -2.842e-2
0.710, -2.830e-2
0.709, -2.817e-2
0.708, -2.804e-2
0.707, -2.791e-2
0.706, -2.779e-2
0.705, -2.766e-2
0.704, -2.754e-2
0.703, -2.741e-2
0.702, -2.729e-2
0.701, -2.716e-2
0.700, -2.704e-2
0.699, -2.691e-2
0.698, -2.679e-2
0.697, -2.667e-2
0.696, -2.655e-2
0.695, -2.642e-2
0.694, -2.630e-2
0.693, -2.618e-2
0.692, -2.607e-2
0.691, -2.594e-2
0.690, -2.583e-2
0.689, -2.571e-2
0.688, -2.560e-2
0.687, -2.548e-2
0.686, -2.536e-2
0.685, -2.524e-2
0.684, -2.513e-2
0.683, -2.502e-2
0.682, -2.490e-2
0.681, -2.478e-2
0.680, -2.467e-2
0.679, -2.456e-2
0.678, -2.445e-2
0.677, -2.433e-2
0.676, -2.422e-2
0.675, -2.411e-2
0.674, -2.400e-2
0.673, -2.388e-2
0.672, -2.377e-2
0.671, -2.366e-2
0.670, -2.355e-2
0.669, -2.344e-2
0.668, -2.333e-2
0.667, -2.322e-2
0.666, -2.311e-2
0.665, -2.300e-2
0.664, -2.289e-2
0.663, -2.278e-2
0.662, -2.268e-2
0.661, -2.257e-2
0.660, -2.246e-2
0.659, -2.236e-2
0.658, -2.225e-2
0.657, -2.214e-2
0.656, -2.204e-2
0.655, -2.193e-2
0.654, -2.183e-2
0.653, -2.172e-2
0.652, -2.162e-2
0.651, -2.152e-2
0.650, -2.141e-2
0.649, -2.131e-2
0.648, -2.121e-2
0.647, -2.111e-2
0.646, -2.101e-2
0.645, -2.091e-2
0.644, -2.081e-2
0.643, -2.070e-2
0.642, -2.060e-2
0.641, -2.050e-2
0.640, -2.040e-2
0.639, -2.030e-2
0.638, -2.020e-2
0.637, -2.010e-2
0.636, -2.000e-2
0.635, -1.990e-2
0.634, -1.980e-2
0.633, -1.970e-2
0.632, -1.961e-2
0.631, -1.951e-2
0.630, -1.941e-2
0.629, -1.932e-2
0.628, -1.923e-2
0.627, -1.914e-2
0.626, -1.904e-2
0.625, -1.894e-2
0.624, -1.885e-2
0.623, -1.875e-2
0.622, -1.866e-2
0.621, -1.856e-2
0.620, -1.846e-2
0.619, -1.837e-2
0.618, -1.828e-2
0.617, -1.818e-2
0.616, -1.809e-2
0.615, -1.799e-2
0.614, -1.789e-2
0.613, -1.780e-2
0.612, -1.771e-2
0.611, -1.761e-2
0.610, -1.752e-2
0.609, -1.742e-2
0.608, -1.733e-2
0.607, -1.724e-2
0.606, -1.715e-2
0.605, -1.706e-2
0.604, -1.697e-2
0.603, -1.687e-2
0.602, -1.678e-2
0.601, -1.669e-2
0.600, -1.660e-2
0.599, -1.651e-2
0.598, -1.642e-2
0.597, -1.632e-2
0.596, -1.624e-2
0.595, -1.614e-2
0.594, -1.605e-2
0.593, -1.596e-2
0.592, -1.587e-2
0.591, -1.578e-2
0.590, -1.569e-2
0.589, -1.560e-2
0.588, -1.551e-2
0.587, -1.542e-2
0.586, -1.533e-2
0.585, -1.524e-2
0.584, -1.515e-2
0.583, -1.506e-2
0.582, -1.497e-2
0.581, -1.488e-2
0.580, -1.479e-2
0.579, -1.470e-2
0.578, -1.462e-2
0.577, -1.453e-2
0.576, -1.444e-2
0.575, -1.435e-2
0.574, -1.427e-2
0.573, -1.417e-2
0.572, -1.409e-2
0.571, -1.400e-2
0.570, -1.391e-2
0.569, -1.382e-2
0.568, -1.374e-2
0.567, -1.365e-2
0.566, -1.356e-2
0.565, -1.347e-2
0.564, -1.339e-2
0.563, -1.331e-2
0.562, -1.322e-2
0.561, -1.313e-2
0.560, -1.305e-2
0.559, -1.296e-2
0.558, -1.288e-2
0.557, -1.279e-2
0.556, -1.270e-2
0.555, -1.261e-2
0.554, -1.253e-2
0.553, -1.244e-2
0.552, -1.236e-2
0.551, -1.227e-2
0.550, -1.218e-2
0.549, -1.210e-2
0.548, -1.201e-2
0.547, -1.193e-2
0.546, -1.184e-2
0.545, -1.175e-2
0.544, -1.167e-2
0.543, -1.158e-2
0.542, -1.150e-2
0.541, -1.141e-2
0.540, -1.133e-2
0.539, -1.124e-2
0.538, -1.116e-2
0.537, -1.107e-2
0.536, -1.099e-2
0.535, -1.090e-2
0.534, -1.082e-2
0.533, -1.073e-2
0.532, -1.065e-2
0.531, -1.056e-2
0.530, -1.048e-2
0.529, -1.039e-2
0.528, -1.031e-2
0.527, -1.022e-2
0.526, -1.014e-2
0.525, -1.005e-2
0.524, -9.972e-3
0.523, -9.887e-3
0.522, -9.803e-3
0.521, -9.719e-3
0.520, -9.635e-3
0.519, -9.547e-3
0.518, -9.465e-3
0.517, -9.383e-3
0.516, -9.300e-3
0.515, -9.215e-3
0.514, -9.133e-3
0.513, -9.047e-3
0.512, -8.962e-3
0.511, -8.875e-3
0.510, -8.793e-3
0.509, -8.709e-3
0.508, -8.627e-3
0.507, -8.544e-3
0.506, -8.461e-3
0.505, -8.372e-3
0.504, -8.290e-3
0.503, -8.206e-3
0.502, -8.123e-3
0.501, -8.038e-3
0.500, -7.955e-3
0.499, -7.870e-3
0.498, -7.790e-3
0.497, -7.704e-3
0.496, -7.621e-3
0.495, -7.537e-3
0.494, -7.455e-3
0.493, -7.368e-3
0.492, -7.284e-3
0.491, -7.198e-3
0.490, -7.116e-3
0.489, -7.033e-3
0.488, -6.951e-3
0.487, -6.864e-3
0.486, -6.784e-3
0.485, -6.698e-3
0.484, -6.616e-3
0.483, -6.535e-3
0.482, -6.451e-3
0.481, -6.366e-3
0.480, -6.285e-3
0.479, -6.199e-3
0.478, -6.120e-3
0.477, -6.035e-3
0.476, -5.951e-3
0.475, -5.870e-3
0.474, -5.787e-3
0.473, -5.704e-3
0.472, -5.625e-3
0.471, -5.541e-3
0.470, -5.463e-3
0.469, -5.379e-3
0.468, -5.300e-3
0.467, -5.217e-3
0.466, -5.136e-3
0.465, -5.054e-3
0.464, -4.971e-3
0.463, -4.889e-3
0.462, -4.809e-3
0.461, -4.723e-3
0.460, -4.642e-3
0.459, -4.560e-3
0.458, -4.478e-3
0.457, -4.398e-3
0.456, -4.319e-3
0.455, -4.235e-3
0.454, -4.155e-3
0.453, -4.072e-3
0.452, -3.992e-3
0.451, -3.909e-3
0.450, -3.829e-3
0.449, -3.749e-3
0.448, -3.671e-3
0.447, -3.593e-3
0.446, -3.515e-3
0.445, -3.433e-3
0.444, -3.354e-3
0.443, -3.273e-3
0.442, -3.194e-3
0.441, -3.112e-3
0.440, -3.033e-3
0.439, -2.952e-3
0.438, -2.877e-3
0.437, -2.796e-3
0.436, -2.718e-3
0.435, -2.636e-3
0.434, -2.558e-3
0.433, -2.477e-3
0.432, -2.400e-3
0.431, -2.319e-3
0.430, -2.240e-3
0.429, -2.159e-3
0.428, -2.082e-3
0.427, -2.004e-3
0.426, -1.926e-3
0.425, -1.845e-3
0.424, -1.770e-3
0.423, -1.689e-3
0.422, -1.615e-3
0.421, -1.537e-3
0.420, -1.462e-3
0.419, -1.386e-3
0.418, -1.309e-3
0.417, -1.231e-3
0.416, -1.153e-3
0.415, -1.074e-3
0.414, -9.989e-4
0.413, -9.228e-4
0.412, -8.454e-4
0.411, -7.703e-4
0.410, -6.901e-4
0.409, -6.066e-4
0.408, -5.325e-4
0.407, -4.553e-4
0.406, -3.808e-4
0.405, -3.060e-4
0.404, -2.323e-4
0.403, -1.562e-4
0.402, -8.169e-5
0.401, -6.284e-6
0.400, 6.794e-5
0.399, 1.419e-4
0.398, 2.126e-4
0.397, 2.875e-4
0.396, 3.606e-4
0.395, 4.371e-4
0.394, 5.100e-4
0.393, 5.825e-4
0.392, 6.546e-4
0.391, 7.295e-4
0.390, 8.026e-4
0.389, 8.758e-4
0.388, 9.469e-4
0.387, 1.017e-3
0.386, 1.088e-3
0.385, 1.161e-3
0.384, 1.233e-3
0.383, 1.304e-3
0.382, 1.371e-3
0.381, 1.441e-3
0.380, 1.512e-3
0.379, 1.582e-3
0.378, 1.652e-3
0.377, 1.723e-3
0.376, 1.791e-3
0.375, 1.861e-3
0.374, 1.929e-3
0.373, 2.000e-3
0.372, 2.068e-3
0.371, 2.137e-3
0.370, 2.205e-3
0.369, 2.273e-3
0.368, 2.336e-3
0.367, 2.402e-3
0.366, 2.468e-3
0.365, 2.539e-3
0.364, 2.606e-3
0.363, 2.673e-3
0.362, 2.741e-3
0.361, 2.807e-3
0.360, 2.873e-3
0.359, 2.943e-3
0.358, 3.012e-3
0.357, 3.079e-3
0.356, 3.145e-3
0.355, 3.211e-3
0.354, 3.277e-3
0.353, 3.343e-3
0.352, 3.411e-3
0.351, 3.479e-3
0.350, 3.541e-3
0.349, 3.604e-3
0.348, 3.669e-3
0.347, 3.734e-3
0.346, 3.797e-3
0.345, 3.862e-3
0.344, 3.927e-3
0.343, 3.992e-3
0.342, 4.054e-3
0.341, 4.118e-3
0.340, 4.182e-3
0.339, 4.248e-3
0.338, 4.312e-3
0.337, 4.373e-3
0.336, 4.434e-3
0.335, 4.498e-3
0.334, 4.558e-3
0.333, 4.622e-3
0.332, 4.686e-3
0.331, 4.746e-3
0.330, 4.805e-3
0.329, 4.867e-3
0.328, 4.927e-3
0.327, 4.988e-3
0.326, 5.047e-3
0.325, 5.109e-3
0.324, 5.169e-3
0.323, 5.225e-3
0.322, 5.284e-3
0.321, 5.344e-3
0.320, 5.404e-3
0.319, 5.464e-3
0.318, 5.519e-3
0.317, 5.579e-3
0.316, 5.636e-3
0.315, 5.692e-3
0.314, 5.746e-3
0.313, 5.805e-3
0.312, 5.863e-3
0.311, 5.919e-3
0.310, 5.972e-3
0.309, 6.029e-3
0.308, 6.084e-3
0.307, 6.144e-3
0.306, 6.198e-3
0.305, 6.252e-3
0.304, 6.304e-3
0.303, 6.358e-3
0.302, 6.410e-3
0.301, 6.468e-3
0.300, 6.518e-3
0.299, 6.571e-3
0.298, 6.627e-3
0.297, 6.677e-3
0.296, 6.730e-3
0.295, 6.782e-3
0.294, 6.838e-3
0.293, 6.892e-3
0.292, 6.944e-3
0.291, 6.992e-3
0.290, 7.045e-3
0.289, 7.098e-3
0.288, 7.151e-3
0.287, 7.203e-3
0.286, 7.253e-3
0.285, 7.308e-3
0.284, 7.363e-3
0.283, 7.412e-3
0.282, 7.465e-3
0.281, 7.518e-3
0.280, 7.572e-3
0.279, 7.624e-3
0.278, 7.675e-3
0.277, 7.729e-3
0.276, 7.779e-3
0.275, 7.833e-3
0.274, 7.882e-3
0.273, 7.934e-3
0.272, 7.986e-3
0.271, 8.040e-3
0.270, 8.090e-3
0.269, 8.143e-3
0.268, 8.195e-3
0.267, 8.246e-3
0.266, 8.299e-3
0.265, 8.354e-3
0.264, 8.404e-3
0.263, 8.457e-3
0.262, 8.509e-3
0.261, 8.562e-3
0.260, 8.614e-3
0.259, 8.663e-3
0.258, 8.715e-3
0.257, 8.766e-3
0.256, 8.821e-3
0.255, 8.875e-3
0.254, 8.923e-3
0.253, 8.976e-3
0.252, 9.028e-3
0.251, 9.078e-3
0.250, 9.129e-3
0.249, 9.179e-3
0.248, 9.232e-3
0.247, 9.286e-3
0.246, 9.336e-3
0.245, 9.388e-3
0.244, 9.438e-3
0.243, 9.490e-3
0.242, 9.544e-3
0.241, 9.595e-3
0.240, 9.647e-3
0.239, 9.700e-3
0.238, 9.750e-3
0.237, 9.802e-3
0.236, 9.856e-3
0.235, 9.907e-3
0.234, 9.958e-3
0.233, 1.001e-2
0.232, 1.006e-2
0.231, 1.011e-2
0.230, 1.017e-2
0.229, 1.022e-2
0.228, 1.027e-2
0.227, 1.032e-2
0.226, 1.037e-2
0.225, 1.042e-2
0.224, 1.047e-2
0.223, 1.053e-2
0.222, 1.058e-2
0.221, 1.063e-2
0.220, 1.068e-2
0.219, 1.074e-2
0.218, 1.079e-2
0.217, 1.084e-2
0.216, 1.089e-2
0.215, 1.095e-2
0.214, 1.100e-2
0.213, 1.105e-2
0.212, 1.110e-2
0.211, 1.116e-2
0.210, 1.121e-2
0.209, 1.126e-2
0.208, 1.131e-2
0.207, 1.136e-2
0.206, 1.142e-2
0.205, 1.147e-2
0.204, 1.153e-2
0.203, 1.158e-2
0.202, 1.163e-2
0.201, 1.168e-2
0.200, 1.173e-2
0.199, 1.179e-2
0.198, 1.184e-2
0.197, 1.189e-2
0.196, 1.195e-2
0.195, 1.200e-2
0.194, 1.205e-2
0.193, 1.209e-2
0.192, 1.214e-2
0.191, 1.219e-2
0.190, 1.224e-2
0.189, 1.229e-2
0.188, 1.234e-2
0.187, 1.239e-2
0.186, 1.245e-2
0.185, 1.250e-2
0.184, 1.255e-2
0.183, 1.260e-2
0.182, 1.265e-2
0.181, 1.271e-2
0.180, 1.276e-2
0.179, 1.281e-2
0.178, 1.286e-2
0.177, 1.291e-2
0.176, 1.296e-2
0.175, 1.301e-2
0.174, 1.306e-2
0.173, 1.311e-2
0.172, 1.317e-2
0.171, 1.322e-2
0.170, 1.327e-2
0.169, 1.332e-2
0.168, 1.337e-2
0.167, 1.343e-2
0.166, 1.348e-2
0.165, 1.353e-2
0.164, 1.358e-2
0.163, 1.363e-2
0.162, 1.368e-2
0.161, 1.373e-2
0.160, 1.378e-2
0.159, 1.383e-2
0.158, 1.388e-2
0.157, 1.393e-2
0.156, 1.398e-2
0.155, 1.403e-2
0.154, 1.408e-2
0.153, 1.413e-2
0.152, 1.418e-2
0.151, 1.423e-2
0.150, 1.428e-2
0.149, 1.433e-2
0.148, 1.438e-2
0.147, 1.443e-2
0.146, 1.448e-2
0.145, 1.453e-2
0.144, 1.458e-2
0.143, 1.463e-2
0.142, 1.468e-2
0.141, 1.473e-2
0.140, 1.478e-2
0.139, 1.483e-2
0.138, 1.488e-2
0.137, 1.493e-2
0.136, 1.498e-2
0.135, 1.503e-2
0.134, 1.508e-2
0.133, 1.513e-2
0.132, 1.518e-2
0.131, 1.523e-2
0.130, 1.528e-2
0.129, 1.533e-2
0.128, 1.538e-2
0.127, 1.543e-2
0.126, 1.548e-2
0.125, 1.553e-2
0.124, 1.558e-2
0.123, 1.563e-2
0.122, 1.568e-2
0.121, 1.573e-2
0.120, 1.578e-2
0.119, 1.582e-2
0.118, 1.587e-2
0.117, 1.592e-2
0.116, 1.597e-2
0.115, 1.602e-2
0.114, 1.607e-2
0.113, 1.612e-2
0.112, 1.617e-2
0.111, 1.622e-2
0.110, 1.627e-2
0.109, 1.632e-2
0.108, 1.637e-2
0.107, 1.642e-2
0.106, 1.647e-2
0.105, 1.652e-2
0.104, 1.657e-2
0.103, 1.662e-2
0.102, 1.667e-2
0.101, 1.672e-2
0.100, 1.677e-2
0.099, 1.681e-2
0.098, 1.686e-2
0.097, 1.691e-2
0.096, 1.697e-2
0.095, 1.701e-2
0.094, 1.706e-2
0.093, 1.711e-2
0.092, 1.716e-2
0.091, 1.721e-2
0.090, 1.726e-2
0.089, 1.731e-2
0.088, 1.735e-2
0.087, 1.740e-2
0.086, 1.745e-2
0.085, 1.750e-2
0.084, 1.755e-2
0.083, 1.760e-2
0.082, 1.765e-2
0.081, 1.770e-2
0.080, 1.775e-2
0.079, 1.779e-2
0.078, 1.784e-2
0.077, 1.789e-2
0.076, 1.794e-2
0.075, 1.799e-2
0.074, 1.804e-2
0.073, 1.808e-2
0.072, 1.813e-2
0.071, 1.818e-2
0.070, 1.823e-2
0.069, 1.827e-2
0.068, 1.832e-2
0.067, 1.837e-2
0.066, 1.842e-2
0.065, 1.846e-2
0.064, 1.851e-2
0.063, 1.856e-2
0.062, 1.861e-2
0.061, 1.866e-2
0.060, 1.871e-2
0.059, 1.875e-2
0.058, 1.880e-2
0.057, 1.885e-2
0.056, 1.890e-2
0.055, 1.895e-2
0.054, 1.899e-2
0.053, 1.904e-2
0.052, 1.909e-2
0.051, 1.914e-2
0.050, 1.919e-2
0.049, 1.924e-2
0.048, 1.928e-2
0.047, 1.933e-2
0.046, 1.938e-2
0.045, 1.943e-2
0.044, 1.947e-2
0.043, 1.952e-2
0.042, 1.957e-2
0.041, 1.962e-2
0.040, 1.966e-2
0.039, 1.971e-2
0.038, 1.976e-2
0.037, 1.980e-2
0.036, 1.985e-2
0.035, 1.990e-2
0.034, 1.995e-2
0.033, 2.000e-2
0.032, 2.005e-2
0.031, 2.009e-2
0.030, 2.014e-2
0.029, 2.018e-2
0.028, 2.023e-2
0.027, 2.028e-2
0.026, 2.033e-2
0.025, 2.037e-2
0.024, 2.042e-2
0.023, 2.047e-2
0.022, 2.052e-2
0.021, 2.056e-2
0.020, 2.061e-2
0.019, 2.065e-2
0.018, 2.070e-2
0.017, 2.075e-2
0.016, 2.079e-2
0.015, 2.084e-2
0.014, 2.088e-2
0.013, 2.093e-2
0.012, 2.098e-2
0.011, 2.102e-2
0.010, 2.107e-2
0.009, 2.112e-2
0.008, 2.116e-2
0.007, 2.121e-2
0.006, 2.125e-2
0.005, 2.130e-2
0.004, 2.135e-2
0.003, 2.139e-2
0.002, 2.144e-2
0.001, 2.148e-2
0.000, 2.153e-2
-0.001, 2.158e-2
-0.002, 2.163e-2
-0.003, 2.167e-2
-0.004, 2.172e-2
-0.005, 2.176e-2
-0.006, 2.181e-2
-0.007, 2.185e-2
-0.008, 2.190e-2
-0.009, 2.194e-2
-0.010, 2.199e-2
-0.011, 2.203e-2
-0.012, 2.207e-2
-0.013, 2.212e-2
-0.014, 2.216e-2
-0.015, 2.221e-2
-0.016, 2.225e-2
-0.017, 2.230e-2
-0.018, 2.234e-2
-0.019, 2.239e-2
-0.020, 2.243e-2
-0.021, 2.248e-2
-0.022, 2.252e-2
-0.023, 2.256e-2
-0.024, 2.261e-2
-0.025, 2.265e-2
-0.026, 2.270e-2
-0.027, 2.274e-2
-0.028, 2.278e-2
-0.029, 2.283e-2
-0.030, 2.287e-2
-0.031, 2.291e-2
-0.032, 2.296e-2
-0.033, 2.300e-2
-0.034, 2.305e-2
-0.035, 2.309e-2
-0.036, 2.313e-2
-0.037, 2.317e-2
-0.038, 2.322e-2
-0.039, 2.326e-2
-0.040, 2.331e-2
-0.041, 2.335e-2
-0.042, 2.339e-2
-0.043, 2.344e-2
-0.044, 2.348e-2
-0.045, 2.352e-2
-0.046, 2.357e-2
-0.047, 2.361e-2
-0.048, 2.365e-2
-0.049, 2.369e-2
-0.050, 2.374e-2
-0.051, 2.378e-2
-0.052, 2.383e-2
-0.053, 2.387e-2
-0.054, 2.392e-2
-0.055, 2.396e-2
-0.056, 2.400e-2
-0.057, 2.405e-2
-0.058, 2.409e-2
-0.059, 2.413e-2
-0.060, 2.418e-2
-0.061, 2.422e-2
-0.062, 2.426e-2
-0.063, 2.430e-2
-0.064, 2.434e-2
-0.065, 2.438e-2
-0.066, 2.443e-2
-0.067, 2.447e-2
-0.068, 2.451e-2
-0.069, 2.455e-2
-0.070, 2.459e-2
-0.071, 2.463e-2
-0.072, 2.467e-2
-0.073, 2.472e-2
-0.074, 2.476e-2
-0.075, 2.480e-2
-0.076, 2.484e-2
-0.077, 2.488e-2
-0.078, 2.492e-2
-0.079, 2.496e-2
-0.080, 2.500e-2
-0.081, 2.504e-2
-0.082, 2.508e-2
-0.083, 2.512e-2
-0.084, 2.517e-2
-0.085, 2.520e-2
-0.086, 2.525e-2
-0.087, 2.528e-2
-0.088, 2.533e-2
-0.089, 2.536e-2
-0.090, 2.541e-2
-0.091, 2.544e-2
-0.092, 2.549e-2
-0.093, 2.552e-2
-0.094, 2.557e-2
-0.095, 2.560e-2
-0.096, 2.564e-2
-0.097, 2.568e-2
-0.098, 2.572e-2
-0.099, 2.576e-2
-0.100, 2.580e-2
-0.101, 2.583e-2
-0.102, 2.588e-2
-0.103, 2.592e-2
-0.104, 2.595e-2
-0.105, 2.599e-2
-0.106, 2.603e-2
-0.107, 2.607e-2
-0.108, 2.611e-2
-0.109, 2.615e-2
-0.110, 2.619e-2
-0.111, 2.622e-2
-0.112, 2.626e-2
-0.113, 2.630e-2
-0.114, 2.634e-2
-0.115, 2.637e-2
-0.116, 2.641e-2
-0.117, 2.645e-2
-0.118, 2.649e-2
-0.119, 2.653e-2
-0.120, 2.657e-2
-0.121, 2.660e-2
-0.122, 2.664e-2
-0.123, 2.668e-2
-0.124, 2.672e-2
-0.125, 2.675e-2
-0.126, 2.680e-2
-0.127, 2.683e-2
-0.128, 2.687e-2
-0.129, 2.691e-2
-0.130, 2.695e-2
-0.131, 2.698e-2
-0.132, 2.702e-2
-0.133, 2.705e-2
-0.134, 2.709e-2
-0.135, 2.713e-2
-0.136, 2.716e-2
-0.137, 2.720e-2
-0.138, 2.724e-2
-0.139, 2.727e-2
-0.140, 2.731e-2
-0.141, 2.734e-2
-0.142, 2.738e-2
-0.143, 2.741e-2
-0.144, 2.745e-2
-0.145, 2.749e-2
-0.146, 2.752e-2
-0.147, 2.756e-2
-0.148, 2.759e-2
-0.149, 2.763e-2
-0.150, 2.767e-2
-0.151, 2.770e-2
-0.152, 2.773e-2
-0.153, 2.777e-2
-0.154, 2.780e-2
-0.155, 2.784e-2
-0.156, 2.787e-2
-0.157, 2.790e-2
-0.158, 2.794e-2
-0.159, 2.797e-2
-0.160, 2.801e-2
-0.161, 2.804e-2
-0.162, 2.808e-2
-0.163, 2.811e-2
-0.164, 2.815e-2
-0.165, 2.818e-2
-0.166, 2.822e-2
-0.167, 2.825e-2
-0.168, 2.828e-2
-0.169, 2.832e-2
-0.170, 2.835e-2
-0.171, 2.838e-2
-0.172, 2.842e-2
-0.173, 2.845e-2
-0.174, 2.849e-2
-0.175, 2.852e-2
-0.176, 2.855e-2
-0.177, 2.858e-2
-0.178, 2.861e-2
-0.179, 2.865e-2
-0.180, 2.868e-2
-0.181, 2.872e-2
-0.182, 2.875e-2
-0.183, 2.878e-2
-0.184, 2.881e-2
-0.185, 2.885e-2
-0.186, 2.888e-2
-0.187, 2.891e-2
-0.188, 2.895e-2
-0.189, 2.898e-2
-0.190, 2.901e-2
-0.191, 2.904e-2
-0.192, 2.908e-2
-0.193, 2.911e-2
-0.194, 2.914e-2
-0.195, 2.917e-2
-0.196, 2.921e-2
-0.197, 2.924e-2
-0.198, 2.927e-2
-0.199, 2.930e-2
-0.200, 2.934e-2
-0.201, 2.937e-2
-0.202, 2.940e-2
-0.203, 2.943e-2
-0.204, 2.946e-2
-0.205, 2.949e-2
-0.206, 2.953e-2
-0.207, 2.956e-2
-0.208, 2.959e-2
-0.209, 2.962e-2
-0.210, 2.966e-2
-0.211, 2.969e-2
-0.212, 2.972e-2
-0.213, 2.975e-2
-0.214, 2.978e-2
-0.215, 2.981e-2
-0.216, 2.984e-2
-0.217, 2.987e-2
-0.218, 2.990e-2
-0.219, 2.993e-2
-0.220, 2.996e-2
-0.221, 2.999e-2
-0.222, 3.002e-2
-0.223, 3.005e-2
-0.224, 3.009e-2
-0.225, 3.012e-2
-0.226, 3.015e-2
-0.227, 3.017e-2
-0.228, 3.021e-2
-0.229, 3.023e-2
-0.230, 3.027e-2
-0.231, 3.029e-2
-0.232, 3.033e-2
-0.233, 3.036e-2
-0.234, 3.039e-2
-0.235, 3.042e-2
-0.236, 3.045e-2
-0.237, 3.048e-2
-0.238, 3.051e-2
-0.239, 3.054e-2
-0.240, 3.057e-2
-0.241, 3.060e-2
-0.242, 3.063e-2
-0.243, 3.066e-2
-0.244, 3.070e-2
-0.245, 3.073e-2
-0.246, 3.076e-2
-0.247, 3.079e-2
-0.248, 3.081e-2
-0.249, 3.084e-2
-0.250, 3.088e-2
-0.251, 3.090e-2
-0.252, 3.093e-2
-0.253, 3.096e-2
-0.254, 3.099e-2
-0.255, 3.102e-2
-0.256, 3.105e-2
-0.257, 3.108e-2
-0.258, 3.111e-2
-0.259, 3.114e-2
-0.260, 3.117e-2
-0.261, 3.120e-2
-0.262, 3.123e-2
-0.263, 3.125e-2
-0.264, 3.129e-2
-0.265, 3.131e-2
-0.266, 3.134e-2
-0.267, 3.137e-2
-0.268, 3.140e-2
-0.269, 3.143e-2
-0.270, 3.146e-2
-0.271, 3.148e-2
-0.272, 3.152e-2
-0.273, 3.155e-2
-0.274, 3.158e-2
-0.275, 3.160e-2
-0.276, 3.163e-2
-0.277, 3.166e-2
-0.278, 3.169e-2
-0.279, 3.171e-2
-0.280, 3.174e-2
-0.281, 3.177e-2
-0.282, 3.180e-2
-0.283, 3.183e-2
-0.284, 3.187e-2
-0.285, 3.189e-2
-0.286, 3.192e-2
-0.287, 3.195e-2
-0.288, 3.198e-2
-0.289, 3.201e-2
-0.290, 3.204e-2
-0.291, 3.206e-2
-0.292, 3.209e-2
-0.293, 3.212e-2
-0.294, 3.215e-2
-0.295, 3.218e-2
-0.296, 3.221e-2
-0.297, 3.223e-2
-0.298, 3.226e-2
-0.299, 3.229e-2
-0.300, 3.232e-2
-0.301, 3.235e-2
-0.302, 3.238e-2
-0.303, 3.241e-2
-0.304, 3.243e-2
-0.305, 3.246e-2
-0.306, 3.249e-2
-0.307, 3.252e-2
-0.308, 3.255e-2
-0.309, 3.258e-2
-0.310, 3.261e-2
-0.311, 3.263e-2
-0.312, 3.266e-2
-0.313, 3.269e-2
-0.314, 3.272e-2
-0.315, 3.275e-2
-0.316, 3.278e-2
-0.317, 3.280e-2
-0.318, 3.283e-2
-0.319, 3.286e-2
-0.320, 3.289e-2
-0.321, 3.291e-2
-0.322, 3.294e-2
-0.323, 3.297e-2
-0.324, 3.300e-2
-0.325, 3.303e-2
-0.326, 3.306e-2
-0.327, 3.309e-2
-0.328, 3.312e-2
-0.329, 3.314e-2
-0.330, 3.317e-2
-0.331, 3.320e-2
-0.332, 3.323e-2
-0.333, 3.325e-2
-0.334, 3.328e-2
-0.335, 3.331e-2
-0.336, 3.334e-2
-0.337, 3.337e-2
-0.338, 3.339e-2
-0.339, 3.342e-2
-0.340, 3.345e-2
-0.341, 3.348e-2
-0.342, 3.351e-2
-0.343, 3.354e-2
-0.344, 3.356e-2
-0.345, 3.359e-2
-0.346, 3.362e-2
-0.347, 3.365e-2
-0.348, 3.368e-2
-0.349, 3.370e-2
-0.350, 3.373e-2
-0.351, 3.376e-2
-0.352, 3.379e-2
-0.353, 3.381e-2
-0.354, 3.384e-2
-0.355, 3.387e-2
-0.356, 3.390e-2
-0.357, 3.392e-2
-0.358, 3.395e-2
-0.359, 3.398e-2
-0.360, 3.401e-2
-0.361, 3.404e-2
-0.362, 3.407e-2
-0.363, 3.409e-2
-0.364, 3.412e-2
-0.365, 3.415e-2
-0.366, 3.418e-2
-0.367, 3.420e-2
-0.368, 3.423e-2
-0.369, 3.426e-2
-0.370, 3.429e-2
-0.371, 3.432e-2
-0.372, 3.435e-2
-0.373, 3.437e-2
-0.374, 3.440e-2
-0.375, 3.443e-2
-0.376, 3.446e-2
-0.377, 3.448e-2
-0.378, 3.452e-2
-0.379, 3.454e-2
-0.380, 3.457e-2
-0.381, 3.460e-2
-0.382, 3.463e-2
-0.383, 3.466e-2
-0.384, 3.469e-2
-0.385, 3.471e-2
-0.386, 3.474e-2
-0.387, 3.477e-2
-0.388, 3.480e-2
-0.389, 3.482e-2
-0.390, 3.486e-2
-0.391, 3.488e-2
-0.392, 3.492e-2
-0.393, 3.494e-2
-0.394, 3.497e-2
-0.395, 3.499e-2
-0.396, 3.503e-2
-0.397, 3.505e-2
-0.398, 3.508e-2
-0.399, 3.511e-2
-0.400, 3.514e-2
-0.401, 3.516e-2
-0.402, 3.520e-2
-0.403, 3.522e-2
-0.404, 3.526e-2
-0.405, 3.528e-2
-0.406, 3.531e-2
-0.407, 3.534e-2
-0.408, 3.537e-2
-0.409, 3.540e-2
-0.410, 3.543e-2
-0.411, 3.546e-2
-0.412, 3.549e-2
-0.413, 3.552e-2
-0.414, 3.555e-2
-0.415, 3.558e-2
-0.416, 3.561e-2
-0.417, 3.563e-2
-0.418, 3.567e-2
-0.419, 3.569e-2
-0.420, 3.572e-2
-0.421, 3.575e-2
-0.422, 3.578e-2
-0.423, 3.581e-2
-0.424, 3.584e-2
-0.425, 3.586e-2
-0.426, 3.590e-2
-0.427, 3.592e-2
-0.428, 3.595e-2
-0.429, 3.598e-2
-0.430, 3.601e-2
-0.431, 3.604e-2
-0.432, 3.607e-2
-0.433, 3.610e-2
-0.434, 3.613e-2
-0.435, 3.616e-2
-0.436, 3.619e-2
-0.437, 3.622e-2
-0.438, 3.625e-2
-0.439, 3.627e-2
-0.440, 3.631e-2
-0.441, 3.633e-2
-0.442, 3.637e-2
-0.443, 3.639e-2
-0.444, 3.642e-2
-0.445, 3.645e-2
-0.446, 3.648e-2
-0.447, 3.651e-2
-0.448, 3.655e-2
-0.449, 3.657e-2
-0.450, 3.660e-2
-0.451, 3.663e-2
-0.452, 3.666e-2
-0.453, 3.669e-2
-0.454, 3.672e-2
-0.455, 3.675e-2
-0.456, 3.678e-2
-0.457, 3.681e-2
-0.458, 3.684e-2
-0.459, 3.687e-2
-0.460, 3.690e-2
-0.461, 3.693e-2
-0.462, 3.696e-2
-0.463, 3.699e-2
-0.464, 3.702e-2
-0.465, 3.705e-2
-0.466, 3.708e-2
-0.467, 3.711e-2
-0.468, 3.714e-2
-0.469, 3.717e-2
-0.470, 3.720e-2
-0.471, 3.722e-2
-0.472, 3.726e-2
-0.473, 3.729e-2
-0.474, 3.732e-2
-0.475, 3.735e-2
-0.476, 3.738e-2
-0.477, 3.741e-2
-0.478, 3.744e-2
-0.479, 3.747e-2
-0.480, 3.750e-2
-0.481, 3.753e-2
-0.482, 3.756e-2
-0.483, 3.759e-2
-0.484, 3.762e-2
-0.485, 3.765e-2
-0.486, 3.768e-2
-0.487, 3.771e-2
-0.488, 3.774e-2
-0.489, 3.777e-2
-0.490, 3.780e-2
-0.491, 3.783e-2
-0.492, 3.786e-2
-0.493, 3.789e-2
-0.494, 3.793e-2
-0.495, 3.795e-2
-0.496, 3.799e-2
-0.497, 3.801e-2
-0.498, 3.805e-2
-0.499, 3.808e-2
-0.500, 3.811e-2
-0.501, 3.814e-2
-0.502, 3.817e-2
-0.503, 3.820e-2
-0.504, 3.824e-2
-0.505, 3.826e-2
-0.506, 3.830e-2
-0.507, 3.833e-2
-0.508, 3.837e-2
-0.509, 3.840e-2
-0.510, 3.843e-2
-0.511, 3.846e-2
-0.512, 3.849e-2
-0.513, 3.852e-2
-0.514, 3.856e-2
-0.515, 3.859e-2
-0.516, 3.862e-2
-0.517, 3.865e-2
-0.518, 3.869e-2
-0.519, 3.872e-2
-0.520, 3.875e-2
-0.521, 3.878e-2
-0.522, 3.882e-2
-0.523, 3.885e-2
-0.524, 3.888e-2
-0.525, 3.891e-2
-0.526, 3.895e-2
-0.527, 3.898e-2
-0.528, 3.901e-2
-0.529, 3.904e-2
-0.530, 3.908e-2
-0.531, 3.911e-2
-0.532, 3.915e-2
-0.533, 3.918e-2
-0.534, 3.921e-2
-0.535, 3.925e-2
-0.536, 3.928e-2
-0.537, 3.931e-2
-0.538, 3.935e-2
-0.539, 3.937e-2
-0.540, 3.941e-2
-0.541, 3.944e-2
-0.542, 3.948e-2
-0.543, 3.952e-2
-0.544, 3.956e-2
-0.545, 3.959e-2
-0.546, 3.962e-2
-0.547, 3.966e-2
-0.548, 3.969e-2
-0.549, 3.972e-2
-0.550, 3.976e-2
-0.551, 3.979e-2
-0.552, 3.983e-2
-0.553, 3.986e-2
-0.554, 3.989e-2
-0.555, 3.992e-2
-0.556, 3.996e-2
-0.557, 3.999e-2
-0.558, 4.003e-2
-0.559, 4.006e-2
-0.560, 4.010e-2
-0.561, 4.013e-2
-0.562, 4.016e-2
-0.563, 4.019e-2
-0.564, 4.023e-2
-0.565, 4.026e-2
-0.566, 4.030e-2
-0.567, 4.033e-2
-0.568, 4.036e-2
-0.569, 4.039e-2
-0.570, 4.043e-2
-0.571, 4.046e-2
-0.572, 4.050e-2
-0.573, 4.053e-2
-0.574, 4.057e-2
-0.575, 4.059e-2
-0.576, 4.063e-2
-0.577, 4.066e-2
-0.578, 4.070e-2
-0.579, 4.073e-2
-0.580, 4.077e-2
-0.581, 4.079e-2
-0.582, 4.083e-2
-0.583, 4.086e-2
-0.584, 4.090e-2
-0.585, 4.094e-2
-0.586, 4.098e-2
-0.587, 4.101e-2
-0.588, 4.104e-2
-0.589, 4.107e-2
-0.590, 4.111e-2
-0.591, 4.113e-2
-0.592, 4.118e-2
-0.593, 4.121e-2
-0.594, 4.125e-2
-0.595, 4.128e-2
-0.596, 4.131e-2
-0.597, 4.134e-2
-0.598, 4.138e-2
-0.599, 4.141e-2
-0.600, 4.145e-2
-0.601, 4.148e-2
-0.602, 4.152e-2
-0.603, 4.155e-2
-0.604, 4.160e-2
-0.605, 4.164e-2
-0.606, 4.168e-2
-0.607, 4.171e-2
-0.608, 4.175e-2
-0.609, 4.178e-2
-0.610, 4.182e-2
-0.611, 4.186e-2
-0.612, 4.189e-2
-0.613, 4.192e-2
-0.614, 4.196e-2
-0.615, 4.200e-2
-0.616, 4.204e-2
-0.617, 4.207e-2
-0.618, 4.210e-2
-0.619, 4.213e-2
-0.620, 4.217e-2
-0.621, 4.221e-2
-0.622, 4.225e-2
-0.623, 4.228e-2
-0.624, 4.232e-2
-0.625, 4.235e-2
-0.626, 4.239e-2
-0.627, 4.243e-2
-0.628, 4.247e-2
-0.629, 4.250e-2
-0.630, 4.254e-2
-0.631, 4.257e-2
-0.632, 4.261e-2
-0.633, 4.264e-2
-0.634, 4.269e-2
-0.635, 4.271e-2
-0.636, 4.276e-2
-0.637, 4.279e-2
-0.638, 4.284e-2
-0.639, 4.288e-2
-0.640, 4.293e-2
-0.641, 4.299e-2
-0.642, 4.303e-2
-0.643, 4.306e-2
-0.644, 4.310e-2
-0.645, 4.313e-2
-0.646, 4.318e-2
-0.647, 4.321e-2
-0.648, 4.326e-2
-0.649, 4.330e-2
-0.650, 4.334e-2
-0.651, 4.338e-2
-0.652, 4.342e-2
-0.653, 4.345e-2
-0.654, 4.348e-2
-0.655, 4.353e-2
-0.656, 4.360e-2
-0.657, 4.364e-2
-0.658, 4.369e-2
-0.659, 4.372e-2
-0.660, 4.377e-2
-0.661, 4.381e-2
-0.662, 4.387e-2
-0.663, 4.392e-2
-0.664, 4.397e-2
-0.665, 4.400e-2
-0.666, 4.406e-2
-0.667, 4.409e-2
-0.668, 4.414e-2
-0.669, 4.418e-2
-0.670, 4.423e-2
-0.671, 4.426e-2
-0.672, 4.430e-2
-0.673, 4.433e-2
-0.674, 4.436e-2
-0.675, 4.439e-2
-0.676, 4.444e-2
-0.677, 4.448e-2
-0.678, 4.453e-2
-0.679, 4.456e-2
-0.680, 4.460e-2
-0.681, 4.465e-2
-0.682, 4.469e-2
-0.683, 4.473e-2
-0.684, 4.476e-2
-0.685, 4.479e-2
-0.686, 4.483e-2
-0.687, 4.486e-2
-0.688, 4.491e-2
-0.689, 4.493e-2
-0.690, 4.498e-2
-0.691, 4.501e-2
-0.692, 4.505e-2
-0.693, 4.509e-2
-0.694, 4.512e-2
-0.695, 4.516e-2
-0.696, 4.520e-2
-0.697, 4.524e-2
-0.698, 4.527e-2
-0.699, 4.531e-2
-0.700, 4.539e-2
-0.701, 4.543e-2
-0.702, 4.548e-2
-0.703, 4.552e-2
-0.704, 4.556e-2
-0.705, 4.560e-2
-0.706, 4.570e-2
-0.707, 4.574e-2
-0.708, 4.578e-2
-0.709, 4.583e-2
-0.710, 4.589e-2
-0.711, 4.593e-2
-0.712, 4.597e-2
-0.713, 4.601e-2
-0.714, 4.606e-2
-0.715, 4.609e-2
-0.716, 4.613e-2
-0.717, 4.617e-2
-0.718, 4.622e-2
-0.719, 4.627e-2
-0.720, 4.633e-2
-0.721, 4.636e-2
-0.722, 4.641e-2
-0.723, 4.645e-2
-0.724, 4.650e-2
-0.725, 4.654e-2
-0.726, 4.659e-2
-0.727, 4.662e-2
-0.728, 4.666e-2
-0.729, 4.674e-2
-0.730, 4.682e-2
-0.731, 4.687e-2
-0.732, 4.692e-2
-0.733, 4.698e-2
-0.734, 4.704e-2
-0.735, 4.708e-2
-0.736, 4.714e-2
-0.737, 4.719e-2
-0.738, 4.727e-2
-0.739, 4.733e-2
-0.740, 4.738e-2
-0.741, 4.744e-2
-0.742, 4.749e-2
-0.743, 4.753e-2
-0.744, 4.758e-2
-0.745, 4.762e-2
-0.746, 4.766e-2
-0.747, 4.770e-2
-0.748, 4.774e-2
-0.749, 4.779e-2
-0.750, 4.785e-2
-0.751, 4.788e-2
-0.752, 4.792e-2
-0.753, 4.797e-2
-0.754, 4.802e-2
-0.755, 4.807e-2
-0.756, 4.812e-2
-0.757, 4.818e-2
-0.758, 4.822e-2
-0.759, 4.828e-2
-0.760, 4.840e-2
-0.761, 4.847e-2
-0.762, 4.856e-2
-0.763, 4.861e-2
-0.764, 4.866e-2
-0.765, 4.870e-2
-0.766, 4.876e-2
-0.767, 4.880e-2
-0.768, 4.885e-2
-0.769, 4.892e-2
-0.770, 4.900e-2
-0.771, 4.908e-2
-0.772, 4.917e-2
-0.773, 4.921e-2
-0.774, 4.927e-2
-0.775, 4.931e-2
-0.776, 4.936e-2
-0.777, 4.943e-2
-0.778, 4.950e-2
-0.779, 4.955e-2
-0.780, 4.961e-2
-0.781, 4.966e-2
-0.782, 4.973e-2
-0.783, 4.978e-2
-0.784, 4.983e-2
-0.785, 4.988e-2
-0.786, 4.992e-2
-0.787, 4.999e-2
-0.788, 5.006e-2
-0.789, 5.013e-2
-0.790, 5.023e-2
-0.791, 5.028e-2
-0.792, 5.035e-2
-0.793, 5.041e-2
-0.794, 5.047e-2
-0.795, 5.053e-2
-0.796, 5.057e-2
-0.797, 5.066e-2
-0.798, 5.076e-2
-0.799, 5.082e-2
