Apr. 28, 2026   12:16:24
Cyclic Voltammetry
File: c:\users\administrator\desktop\2026.4.28\hi 2mol h2so4\0.02\run unsaved.txt
Data Source:  Experiment
Instrument Model:  CHI600E
Header: 
Note: 

Init E (V) = 0
High E (V) = 0.8
Low E (V) = -0.8
Init P/N = N
Scan Rate (V/s) = 0.02
Segment = 3
Sample Interval (V) = 0.001
Quiet Time (sec) = 2
Sensitivity (A/V) = 0.1

Segment 1:

Segment 2:

Segment 3:

Potential/V, Current/A

0.000, -1.468e-2
-0.001, -1.442e-2
-0.002, -1.419e-2
-0.003, -1.398e-2
-0.004, -1.377e-2
-0.005, -1.357e-2
-0.006, -1.338e-2
-0.007, -1.319e-2
-0.008, -1.301e-2
-0.009, -1.284e-2
-0.010, -1.266e-2
-0.011, -1.249e-2
-0.012, -1.233e-2
-0.013, -1.216e-2
-0.014, -1.200e-2
-0.015, -1.185e-2
-0.016, -1.169e-2
-0.017, -1.154e-2
-0.018, -1.139e-2
-0.019, -1.124e-2
-0.020, -1.110e-2
-0.021, -1.096e-2
-0.022, -1.082e-2
-0.023, -1.068e-2
-0.024, -1.055e-2
-0.025, -1.041e-2
-0.026, -1.028e-2
-0.027, -1.015e-2
-0.028, -1.003e-2
-0.029, -9.903e-3
-0.030, -9.778e-3
-0.031, -9.657e-3
-0.032, -9.535e-3
-0.033, -9.419e-3
-0.034, -9.303e-3
-0.035, -9.189e-3
-0.036, -9.074e-3
-0.037, -8.964e-3
-0.038, -8.851e-3
-0.039, -8.743e-3
-0.040, -8.636e-3
-0.041, -8.529e-3
-0.042, -8.422e-3
-0.043, -8.317e-3
-0.044, -8.213e-3
-0.045, -8.110e-3
-0.046, -8.009e-3
-0.047, -7.909e-3
-0.048, -7.812e-3
-0.049, -7.713e-3
-0.050, -7.617e-3
-0.051, -7.520e-3
-0.052, -7.423e-3
-0.053, -7.329e-3
-0.054, -7.236e-3
-0.055, -7.144e-3
-0.056, -7.053e-3
-0.057, -6.963e-3
-0.058, -6.872e-3
-0.059, -6.785e-3
-0.060, -6.698e-3
-0.061, -6.612e-3
-0.062, -6.529e-3
-0.063, -6.442e-3
-0.064, -6.358e-3
-0.065, -6.275e-3
-0.066, -6.192e-3
-0.067, -6.111e-3
-0.068, -6.029e-3
-0.069, -5.950e-3
-0.070, -5.871e-3
-0.071, -5.793e-3
-0.072, -5.716e-3
-0.073, -5.639e-3
-0.074, -5.564e-3
-0.075, -5.490e-3
-0.076, -5.416e-3
-0.077, -5.343e-3
-0.078, -5.269e-3
-0.079, -5.196e-3
-0.080, -5.125e-3
-0.081, -5.053e-3
-0.082, -4.981e-3
-0.083, -4.909e-3
-0.084, -4.841e-3
-0.085, -4.771e-3
-0.086, -4.701e-3
-0.087, -4.633e-3
-0.088, -4.564e-3
-0.089, -4.496e-3
-0.090, -4.431e-3
-0.091, -4.366e-3
-0.092, -4.300e-3
-0.093, -4.235e-3
-0.094, -4.169e-3
-0.095, -4.106e-3
-0.096, -4.041e-3
-0.097, -3.978e-3
-0.098, -3.916e-3
-0.099, -3.853e-3
-0.100, -3.790e-3
-0.101, -3.730e-3
-0.102, -3.669e-3
-0.103, -3.612e-3
-0.104, -3.554e-3
-0.105, -3.494e-3
-0.106, -3.434e-3
-0.107, -3.377e-3
-0.108, -3.319e-3
-0.109, -3.261e-3
-0.110, -3.203e-3
-0.111, -3.146e-3
-0.112, -3.092e-3
-0.113, -3.033e-3
-0.114, -2.977e-3
-0.115, -2.924e-3
-0.116, -2.870e-3
-0.117, -2.816e-3
-0.118, -2.761e-3
-0.119, -2.708e-3
-0.120, -2.655e-3
-0.121, -2.601e-3
-0.122, -2.547e-3
-0.123, -2.496e-3
-0.124, -2.444e-3
-0.125, -2.393e-3
-0.126, -2.341e-3
-0.127, -2.289e-3
-0.128, -2.238e-3
-0.129, -2.187e-3
-0.130, -2.138e-3
-0.131, -2.088e-3
-0.132, -2.040e-3
-0.133, -1.993e-3
-0.134, -1.943e-3
-0.135, -1.893e-3
-0.136, -1.845e-3
-0.137, -1.798e-3
-0.138, -1.751e-3
-0.139, -1.704e-3
-0.140, -1.657e-3
-0.141, -1.610e-3
-0.142, -1.565e-3
-0.143, -1.521e-3
-0.144, -1.477e-3
-0.145, -1.432e-3
-0.146, -1.388e-3
-0.147, -1.343e-3
-0.148, -1.297e-3
-0.149, -1.252e-3
-0.150, -1.209e-3
-0.151, -1.165e-3
-0.152, -1.122e-3
-0.153, -1.078e-3
-0.154, -1.034e-3
-0.155, -9.912e-4
-0.156, -9.489e-4
-0.157, -9.069e-4
-0.158, -8.647e-4
-0.159, -8.236e-4
-0.160, -7.816e-4
-0.161, -7.401e-4
-0.162, -7.000e-4
-0.163, -6.588e-4
-0.164, -6.183e-4
-0.165, -5.789e-4
-0.166, -5.383e-4
-0.167, -4.975e-4
-0.168, -4.577e-4
-0.169, -4.172e-4
-0.170, -3.780e-4
-0.171, -3.396e-4
-0.172, -3.017e-4
-0.173, -2.627e-4
-0.174, -2.239e-4
-0.175, -1.868e-4
-0.176, -1.491e-4
-0.177, -1.114e-4
-0.178, -7.525e-5
-0.179, -3.645e-5
-0.180, 2.199e-6
-0.181, 3.935e-5
-0.182, 7.556e-5
-0.183, 1.118e-4
-0.184, 1.455e-4
-0.185, 1.817e-4
-0.186, 2.175e-4
-0.187, 2.532e-4
-0.188, 2.886e-4
-0.189, 3.238e-4
-0.190, 3.592e-4
-0.191, 3.956e-4
-0.192, 4.321e-4
-0.193, 4.670e-4
-0.194, 4.998e-4
-0.195, 5.337e-4
-0.196, 5.684e-4
-0.197, 6.039e-4
-0.198, 6.383e-4
-0.199, 6.724e-4
-0.200, 7.053e-4
-0.201, 7.404e-4
-0.202, 7.730e-4
-0.203, 8.062e-4
-0.204, 8.397e-4
-0.205, 8.738e-4
-0.206, 9.054e-4
-0.207, 9.381e-4
-0.208, 9.690e-4
-0.209, 1.001e-3
-0.210, 1.032e-3
-0.211, 1.064e-3
-0.212, 1.095e-3
-0.213, 1.126e-3
-0.214, 1.157e-3
-0.215, 1.188e-3
-0.216, 1.218e-3
-0.217, 1.250e-3
-0.218, 1.278e-3
-0.219, 1.309e-3
-0.220, 1.339e-3
-0.221, 1.368e-3
-0.222, 1.398e-3
-0.223, 1.426e-3
-0.224, 1.457e-3
-0.225, 1.488e-3
-0.226, 1.516e-3
-0.227, 1.546e-3
-0.228, 1.574e-3
-0.229, 1.602e-3
-0.230, 1.631e-3
-0.231, 1.661e-3
-0.232, 1.689e-3
-0.233, 1.718e-3
-0.234, 1.745e-3
-0.235, 1.773e-3
-0.236, 1.801e-3
-0.237, 1.829e-3
-0.238, 1.856e-3
-0.239, 1.884e-3
-0.240, 1.911e-3
-0.241, 1.939e-3
-0.242, 1.967e-3
-0.243, 1.995e-3
-0.244, 2.022e-3
-0.245, 2.049e-3
-0.246, 2.074e-3
-0.247, 2.101e-3
-0.248, 2.127e-3
-0.249, 2.155e-3
-0.250, 2.180e-3
-0.251, 2.207e-3
-0.252, 2.232e-3
-0.253, 2.257e-3
-0.254, 2.282e-3
-0.255, 2.307e-3
-0.256, 2.333e-3
-0.257, 2.358e-3
-0.258, 2.381e-3
-0.259, 2.406e-3
-0.260, 2.430e-3
-0.261, 2.455e-3
-0.262, 2.480e-3
-0.263, 2.506e-3
-0.264, 2.529e-3
-0.265, 2.554e-3
-0.266, 2.577e-3
-0.267, 2.602e-3
-0.268, 2.626e-3
-0.269, 2.650e-3
-0.270, 2.674e-3
-0.271, 2.698e-3
-0.272, 2.721e-3
-0.273, 2.746e-3
-0.274, 2.768e-3
-0.275, 2.792e-3
-0.276, 2.817e-3
-0.277, 2.839e-3
-0.278, 2.861e-3
-0.279, 2.884e-3
-0.280, 2.906e-3
-0.281, 2.931e-3
-0.282, 2.954e-3
-0.283, 2.977e-3
-0.284, 3.001e-3
-0.285, 3.023e-3
-0.286, 3.046e-3
-0.287, 3.068e-3
-0.288, 3.090e-3
-0.289, 3.113e-3
-0.290, 3.134e-3
-0.291, 3.156e-3
-0.292, 3.179e-3
-0.293, 3.200e-3
-0.294, 3.221e-3
-0.295, 3.244e-3
-0.296, 3.264e-3
-0.297, 3.286e-3
-0.298, 3.306e-3
-0.299, 3.328e-3
-0.300, 3.349e-3
-0.301, 3.371e-3
-0.302, 3.392e-3
-0.303, 3.415e-3
-0.304, 3.436e-3
-0.305, 3.458e-3
-0.306, 3.477e-3
-0.307, 3.500e-3
-0.308, 3.520e-3
-0.309, 3.539e-3
-0.310, 3.560e-3
-0.311, 3.580e-3
-0.312, 3.600e-3
-0.313, 3.621e-3
-0.314, 3.642e-3
-0.315, 3.662e-3
-0.316, 3.683e-3
-0.317, 3.702e-3
-0.318, 3.721e-3
-0.319, 3.741e-3
-0.320, 3.759e-3
-0.321, 3.779e-3
-0.322, 3.797e-3
-0.323, 3.817e-3
-0.324, 3.837e-3
-0.325, 3.857e-3
-0.326, 3.878e-3
-0.327, 3.898e-3
-0.328, 3.918e-3
-0.329, 3.937e-3
-0.330, 3.956e-3
-0.331, 3.975e-3
-0.332, 3.993e-3
-0.333, 4.011e-3
-0.334, 4.031e-3
-0.335, 4.050e-3
-0.336, 4.068e-3
-0.337, 4.087e-3
-0.338, 4.106e-3
-0.339, 4.126e-3
-0.340, 4.144e-3
-0.341, 4.162e-3
-0.342, 4.181e-3
-0.343, 4.200e-3
-0.344, 4.218e-3
-0.345, 4.238e-3
-0.346, 4.257e-3
-0.347, 4.275e-3
-0.348, 4.293e-3
-0.349, 4.312e-3
-0.350, 4.329e-3
-0.351, 4.346e-3
-0.352, 4.363e-3
-0.353, 4.381e-3
-0.354, 4.398e-3
-0.355, 4.415e-3
-0.356, 4.434e-3
-0.357, 4.450e-3
-0.358, 4.468e-3
-0.359, 4.486e-3
-0.360, 4.504e-3
-0.361, 4.522e-3
-0.362, 4.538e-3
-0.363, 4.557e-3
-0.364, 4.574e-3
-0.365, 4.592e-3
-0.366, 4.610e-3
-0.367, 4.627e-3
-0.368, 4.644e-3
-0.369, 4.661e-3
-0.370, 4.678e-3
-0.371, 4.695e-3
-0.372, 4.712e-3
-0.373, 4.728e-3
-0.374, 4.745e-3
-0.375, 4.762e-3
-0.376, 4.777e-3
-0.377, 4.794e-3
-0.378, 4.810e-3
-0.379, 4.825e-3
-0.380, 4.843e-3
-0.381, 4.859e-3
-0.382, 4.876e-3
-0.383, 4.891e-3
-0.384, 4.908e-3
-0.385, 4.926e-3
-0.386, 4.942e-3
-0.387, 4.958e-3
-0.388, 4.975e-3
-0.389, 4.991e-3
-0.390, 5.007e-3
-0.391, 5.023e-3
-0.392, 5.037e-3
-0.393, 5.053e-3
-0.394, 5.069e-3
-0.395, 5.085e-3
-0.396, 5.101e-3
-0.397, 5.118e-3
-0.398, 5.134e-3
-0.399, 5.150e-3
-0.400, 5.164e-3
-0.401, 5.181e-3
-0.402, 5.195e-3
-0.403, 5.210e-3
-0.404, 5.226e-3
-0.405, 5.240e-3
-0.406, 5.258e-3
-0.407, 5.272e-3
-0.408, 5.287e-3
-0.409, 5.304e-3
-0.410, 5.322e-3
-0.411, 5.335e-3
-0.412, 5.352e-3
-0.413, 5.368e-3
-0.414, 5.385e-3
-0.415, 5.399e-3
-0.416, 5.415e-3
-0.417, 5.430e-3
-0.418, 5.447e-3
-0.419, 5.461e-3
-0.420, 5.476e-3
-0.421, 5.488e-3
-0.422, 5.506e-3
-0.423, 5.523e-3
-0.424, 5.538e-3
-0.425, 5.553e-3
-0.426, 5.567e-3
-0.427, 5.582e-3
-0.428, 5.597e-3
-0.429, 5.612e-3
-0.430, 5.626e-3
-0.431, 5.641e-3
-0.432, 5.654e-3
-0.433, 5.668e-3
-0.434, 5.682e-3
-0.435, 5.696e-3
-0.436, 5.709e-3
-0.437, 5.721e-3
-0.438, 5.737e-3
-0.439, 5.758e-3
-0.440, 5.778e-3
-0.441, 5.793e-3
-0.442, 5.810e-3
-0.443, 5.828e-3
-0.444, 5.843e-3
-0.445, 5.858e-3
-0.446, 5.873e-3
-0.447, 5.887e-3
-0.448, 5.902e-3
-0.449, 5.917e-3
-0.450, 5.928e-3
-0.451, 5.943e-3
-0.452, 5.962e-3
-0.453, 5.974e-3
-0.454, 5.987e-3
-0.455, 6.002e-3
-0.456, 6.017e-3
-0.457, 6.029e-3
-0.458, 6.043e-3
-0.459, 6.056e-3
-0.460, 6.071e-3
-0.461, 6.085e-3
-0.462, 6.097e-3
-0.463, 6.111e-3
-0.464, 6.124e-3
-0.465, 6.138e-3
-0.466, 6.149e-3
-0.467, 6.164e-3
-0.468, 6.180e-3
-0.469, 6.192e-3
-0.470, 6.204e-3
-0.471, 6.224e-3
-0.472, 6.240e-3
-0.473, 6.252e-3
-0.474, 6.263e-3
-0.475, 6.276e-3
-0.476, 6.289e-3
-0.477, 6.301e-3
-0.478, 6.313e-3
-0.479, 6.329e-3
-0.480, 6.343e-3
-0.481, 6.356e-3
-0.482, 6.368e-3
-0.483, 6.379e-3
-0.484, 6.394e-3
-0.485, 6.406e-3
-0.486, 6.420e-3
-0.487, 6.433e-3
-0.488, 6.447e-3
-0.489, 6.460e-3
-0.490, 6.471e-3
-0.491, 6.485e-3
-0.492, 6.501e-3
-0.493, 6.517e-3
-0.494, 6.529e-3
-0.495, 6.540e-3
-0.496, 6.555e-3
-0.497, 6.567e-3
-0.498, 6.580e-3
-0.499, 6.592e-3
-0.500, 6.605e-3
-0.501, 6.615e-3
-0.502, 6.629e-3
-0.503, 6.641e-3
-0.504, 6.669e-3
-0.505, 6.683e-3
-0.506, 6.698e-3
-0.507, 6.711e-3
-0.508, 6.723e-3
-0.509, 6.734e-3
-0.510, 6.748e-3
-0.511, 6.757e-3
-0.512, 6.773e-3
-0.513, 6.782e-3
-0.514, 6.793e-3
-0.515, 6.808e-3
-0.516, 6.827e-3
-0.517, 6.846e-3
-0.518, 6.858e-3
-0.519, 6.875e-3
-0.520, 6.885e-3
-0.521, 6.914e-3
-0.522, 6.927e-3
-0.523, 6.939e-3
-0.524, 6.949e-3
-0.525, 6.960e-3
-0.526, 6.972e-3
-0.527, 6.981e-3
-0.528, 6.994e-3
-0.529, 7.006e-3
-0.530, 7.017e-3
-0.531, 7.031e-3
-0.532, 7.048e-3
-0.533, 7.063e-3
-0.534, 7.073e-3
-0.535, 7.085e-3
-0.536, 7.096e-3
-0.537, 7.111e-3
-0.538, 7.124e-3
-0.539, 7.134e-3
-0.540, 7.144e-3
-0.541, 7.161e-3
-0.542, 7.173e-3
-0.543, 7.182e-3
-0.544, 7.194e-3
-0.545, 7.204e-3
-0.546, 7.216e-3
-0.547, 7.225e-3
-0.548, 7.241e-3
-0.549, 7.250e-3
-0.550, 7.276e-3
-0.551, 7.303e-3
-0.552, 7.312e-3
-0.553, 7.324e-3
-0.554, 7.336e-3
-0.555, 7.351e-3
-0.556, 7.367e-3
-0.557, 7.382e-3
-0.558, 7.399e-3
-0.559, 7.411e-3
-0.560, 7.421e-3
-0.561, 7.429e-3
-0.562, 7.459e-3
-0.563, 7.488e-3
-0.564, 7.502e-3
-0.565, 7.517e-3
-0.566, 7.528e-3
-0.567, 7.539e-3
-0.568, 7.555e-3
-0.569, 7.567e-3
-0.570, 7.576e-3
-0.571, 7.587e-3
-0.572, 7.605e-3
-0.573, 7.612e-3
-0.574, 7.623e-3
-0.575, 7.632e-3
-0.576, 7.642e-3
-0.577, 7.648e-3
-0.578, 7.656e-3
-0.579, 7.670e-3
-0.580, 7.696e-3
-0.581, 7.731e-3
-0.582, 7.750e-3
-0.583, 7.764e-3
-0.584, 7.779e-3
-0.585, 7.791e-3
-0.586, 7.801e-3
-0.587, 7.812e-3
-0.588, 7.833e-3
-0.589, 7.860e-3
-0.590, 7.874e-3
-0.591, 7.884e-3
-0.592, 7.898e-3
-0.593, 7.908e-3
-0.594, 7.925e-3
-0.595, 7.943e-3
-0.596, 7.972e-3
-0.597, 8.042e-3
-0.598, 8.095e-3
-0.599, 8.136e-3
-0.600, 8.156e-3
-0.601, 8.165e-3
-0.602, 8.172e-3
-0.603, 8.190e-3
-0.604, 8.198e-3
-0.605, 8.208e-3
-0.606, 8.223e-3
-0.607, 8.237e-3
-0.608, 8.265e-3
-0.609, 8.287e-3
-0.610, 8.296e-3
-0.611, 8.313e-3
-0.612, 8.351e-3
-0.613, 8.365e-3
-0.614, 8.370e-3
-0.615, 8.388e-3
-0.616, 8.405e-3
-0.617, 8.414e-3
-0.618, 8.418e-3
-0.619, 8.423e-3
-0.620, 8.432e-3
-0.621, 8.439e-3
-0.622, 8.447e-3
-0.623, 8.455e-3
-0.624, 8.461e-3
-0.625, 8.483e-3
-0.626, 8.508e-3
-0.627, 8.513e-3
-0.628, 8.519e-3
-0.629, 8.526e-3
-0.630, 8.534e-3
-0.631, 8.547e-3
-0.632, 8.577e-3
-0.633, 8.617e-3
-0.634, 8.623e-3
-0.635, 8.623e-3
-0.636, 8.630e-3
-0.637, 8.634e-3
-0.638, 8.637e-3
-0.639, 8.643e-3
-0.640, 8.647e-3
-0.641, 8.654e-3
-0.642, 8.662e-3
-0.643, 8.673e-3
-0.644, 8.693e-3
-0.645, 8.730e-3
-0.646, 8.745e-3
-0.647, 8.757e-3
-0.648, 8.770e-3
-0.649, 8.783e-3
-0.650, 8.794e-3
-0.651, 8.805e-3
-0.652, 8.850e-3
-0.653, 8.865e-3
-0.654, 8.872e-3
-0.655, 8.877e-3
-0.656, 8.927e-3
-0.657, 8.993e-3
-0.658, 9.003e-3
-0.659, 9.005e-3
-0.660, 9.016e-3
-0.661, 9.041e-3
-0.662, 9.084e-3
-0.663, 9.094e-3
-0.664, 9.113e-3
-0.665, 9.123e-3
-0.666, 9.129e-3
-0.667, 9.140e-3
-0.668, 9.165e-3
-0.669, 9.209e-3
-0.670, 9.220e-3
-0.671, 9.220e-3
-0.672, 9.224e-3
-0.673, 9.227e-3
-0.674, 9.225e-3
-0.675, 9.235e-3
-0.676, 9.260e-3
-0.677, 9.289e-3
-0.678, 9.321e-3
-0.679, 9.371e-3
-0.680, 9.379e-3
-0.681, 9.384e-3
-0.682, 9.394e-3
-0.683, 9.410e-3
-0.684, 9.444e-3
-0.685, 9.466e-3
-0.686, 9.479e-3
-0.687, 9.484e-3
-0.688, 9.498e-3
-0.689, 9.510e-3
-0.690, 9.536e-3
-0.691, 9.564e-3
-0.692, 9.584e-3
-0.693, 9.587e-3
-0.694, 9.597e-3
-0.695, 9.623e-3
-0.696, 9.632e-3
-0.697, 9.634e-3
-0.698, 9.672e-3
-0.699, 9.785e-3
-0.700, 9.819e-3
-0.701, 9.822e-3
-0.702, 9.833e-3
-0.703, 9.861e-3
-0.704, 9.883e-3
-0.705, 9.895e-3
-0.706, 9.902e-3
-0.707, 9.902e-3
-0.708, 9.942e-3
-0.709, 9.979e-3
-0.710, 9.997e-3
-0.711, 1.000e-2
-0.712, 9.999e-3
-0.713, 1.002e-2
-0.714, 1.004e-2
-0.715, 1.004e-2
-0.716, 1.009e-2
-0.717, 1.018e-2
-0.718, 1.028e-2
-0.719, 1.028e-2
-0.720, 1.027e-2
-0.721, 1.026e-2
-0.722, 1.028e-2
-0.723, 1.029e-2
-0.724, 1.030e-2
-0.725, 1.035e-2
-0.726, 1.036e-2
-0.727, 1.037e-2
-0.728, 1.039e-2
-0.729, 1.041e-2
-0.730, 1.043e-2
-0.731, 1.047e-2
-0.732, 1.048e-2
-0.733, 1.055e-2
-0.734, 1.058e-2
-0.735, 1.058e-2
-0.736, 1.060e-2
-0.737, 1.061e-2
-0.738, 1.064e-2
-0.739, 1.066e-2
-0.740, 1.068e-2
-0.741, 1.073e-2
-0.742, 1.076e-2
-0.743, 1.080e-2
-0.744, 1.083e-2
-0.745, 1.084e-2
-0.746, 1.086e-2
-0.747, 1.088e-2
-0.748, 1.090e-2
-0.749, 1.096e-2
-0.750, 1.101e-2
-0.751, 1.105e-2
-0.752, 1.107e-2
-0.753, 1.112e-2
-0.754, 1.115e-2
-0.755, 1.125e-2
-0.756, 1.128e-2
-0.757, 1.129e-2
-0.758, 1.131e-2
-0.759, 1.132e-2
-0.760, 1.134e-2
-0.761, 1.137e-2
-0.762, 1.146e-2
-0.763, 1.148e-2
-0.764, 1.149e-2
-0.765, 1.152e-2
-0.766, 1.158e-2
-0.767, 1.167e-2
-0.768, 1.176e-2
-0.769, 1.180e-2
-0.770, 1.184e-2
-0.771, 1.189e-2
-0.772, 1.194e-2
-0.773, 1.201e-2
-0.774, 1.208e-2
-0.775, 1.210e-2
-0.776, 1.211e-2
-0.777, 1.214e-2
-0.778, 1.224e-2
-0.779, 1.233e-2
-0.780, 1.239e-2
-0.781, 1.251e-2
-0.782, 1.255e-2
-0.783, 1.257e-2
-0.784, 1.259e-2
-0.785, 1.265e-2
-0.786, 1.275e-2
-0.787, 1.282e-2
-0.788, 1.285e-2
-0.789, 1.286e-2
-0.790, 1.292e-2
-0.791, 1.295e-2
-0.792, 1.303e-2
-0.793, 1.309e-2
-0.794, 1.315e-2
-0.795, 1.317e-2
-0.796, 1.325e-2
-0.797, 1.331e-2
-0.798, 1.337e-2
-0.799, 1.341e-2
-0.800, 1.337e-2
-0.799, 1.315e-2
-0.798, 1.294e-2
-0.797, 1.276e-2
-0.796, 1.266e-2
-0.795, 1.251e-2
-0.794, 1.235e-2
-0.793, 1.220e-2
-0.792, 1.215e-2
-0.791, 1.206e-2
-0.790, 1.189e-2
-0.789, 1.178e-2
-0.788, 1.164e-2
-0.787, 1.150e-2
-0.786, 1.134e-2
-0.785, 1.118e-2
-0.784, 1.111e-2
-0.783, 1.106e-2
-0.782, 1.093e-2
-0.781, 1.080e-2
-0.780, 1.066e-2
-0.779, 1.053e-2
-0.778, 1.040e-2
-0.777, 1.031e-2
-0.776, 1.022e-2
-0.775, 1.010e-2
-0.774, 9.983e-3
-0.773, 9.854e-3
-0.772, 9.761e-3
-0.771, 9.710e-3
-0.770, 9.586e-3
-0.769, 9.448e-3
-0.768, 9.344e-3
-0.767, 9.261e-3
-0.766, 9.181e-3
-0.765, 9.111e-3
-0.764, 8.992e-3
-0.763, 8.897e-3
-0.762, 8.780e-3
-0.761, 8.686e-3
-0.760, 8.572e-3
-0.759, 8.454e-3
-0.758, 8.346e-3
-0.757, 8.288e-3
-0.756, 8.221e-3
-0.755, 8.115e-3
-0.754, 7.997e-3
-0.753, 7.885e-3
-0.752, 7.780e-3
-0.751, 7.684e-3
-0.750, 7.584e-3
-0.749, 7.531e-3
-0.748, 7.494e-3
-0.747, 7.385e-3
-0.746, 7.302e-3
-0.745, 7.258e-3
-0.744, 7.244e-3
-0.743, 7.157e-3
-0.742, 7.055e-3
-0.741, 6.951e-3
-0.740, 6.867e-3
-0.739, 6.793e-3
-0.738, 6.715e-3
-0.737, 6.621e-3
-0.736, 6.543e-3
-0.735, 6.467e-3
-0.734, 6.379e-3
-0.733, 6.296e-3
-0.732, 6.200e-3
-0.731, 6.122e-3
-0.730, 6.036e-3
-0.729, 5.955e-3
-0.728, 5.873e-3
-0.727, 5.805e-3
-0.726, 5.765e-3
-0.725, 5.685e-3
-0.724, 5.596e-3
-0.723, 5.522e-3
-0.722, 5.471e-3
-0.721, 5.425e-3
-0.720, 5.379e-3
-0.719, 5.308e-3
-0.718, 5.225e-3
-0.717, 5.144e-3
-0.716, 5.064e-3
-0.715, 4.984e-3
-0.714, 4.919e-3
-0.713, 4.839e-3
-0.712, 4.766e-3
-0.711, 4.737e-3
-0.710, 4.668e-3
-0.709, 4.579e-3
-0.708, 4.509e-3
-0.707, 4.449e-3
-0.706, 4.378e-3
-0.705, 4.332e-3
-0.704, 4.315e-3
-0.703, 4.237e-3
-0.702, 4.146e-3
-0.701, 4.065e-3
-0.700, 4.002e-3
-0.699, 3.977e-3
-0.698, 3.917e-3
-0.697, 3.851e-3
-0.696, 3.788e-3
-0.695, 3.747e-3
-0.694, 3.695e-3
-0.693, 3.631e-3
-0.692, 3.603e-3
-0.691, 3.619e-3
-0.690, 3.546e-3
-0.689, 3.489e-3
-0.688, 3.434e-3
-0.687, 3.455e-3
-0.686, 3.392e-3
-0.685, 3.319e-3
-0.684, 3.237e-3
-0.683, 3.187e-3
-0.682, 3.131e-3
-0.681, 3.069e-3
-0.680, 3.006e-3
-0.679, 2.957e-3
-0.678, 2.910e-3
-0.677, 2.885e-3
-0.676, 2.823e-3
-0.675, 2.756e-3
-0.674, 2.714e-3
-0.673, 2.655e-3
-0.672, 2.600e-3
-0.671, 2.541e-3
-0.670, 2.495e-3
-0.669, 2.441e-3
-0.668, 2.400e-3
-0.667, 2.354e-3
-0.666, 2.307e-3
-0.665, 2.258e-3
-0.664, 2.211e-3
-0.663, 2.161e-3
-0.662, 2.129e-3
-0.661, 2.081e-3
-0.660, 2.026e-3
-0.659, 1.966e-3
-0.658, 1.918e-3
-0.657, 1.899e-3
-0.656, 1.848e-3
-0.655, 1.796e-3
-0.654, 1.761e-3
-0.653, 1.730e-3
-0.652, 1.676e-3
-0.651, 1.653e-3
-0.650, 1.611e-3
-0.649, 1.559e-3
-0.648, 1.513e-3
-0.647, 1.466e-3
-0.646, 1.414e-3
-0.645, 1.385e-3
-0.644, 1.346e-3
-0.643, 1.310e-3
-0.642, 1.262e-3
-0.641, 1.213e-3
-0.640, 1.158e-3
-0.639, 1.119e-3
-0.638, 1.078e-3
-0.637, 1.036e-3
-0.636, 1.007e-3
-0.635, 9.743e-4
-0.634, 9.341e-4
-0.633, 8.910e-4
-0.632, 8.546e-4
-0.631, 8.265e-4
-0.630, 7.929e-4
-0.629, 7.559e-4
-0.628, 7.314e-4
-0.627, 7.137e-4
-0.626, 6.841e-4
-0.625, 6.422e-4
-0.624, 5.949e-4
-0.623, 5.453e-4
-0.622, 4.992e-4
-0.621, 4.597e-4
-0.620, 4.161e-4
-0.619, 3.827e-4
-0.618, 3.493e-4
-0.617, 3.116e-4
-0.616, 2.824e-4
-0.615, 2.600e-4
-0.614, 2.196e-4
-0.613, 1.779e-4
-0.612, 1.403e-4
-0.611, 1.088e-4
-0.610, 7.745e-5
-0.609, 3.982e-5
-0.608, 4.634e-6
-0.607, -3.118e-5
-0.606, -5.914e-5
-0.605, -8.876e-5
-0.604, -1.082e-4
-0.603, -1.309e-4
-0.602, -1.649e-4
-0.601, -2.005e-4
-0.600, -2.359e-4
-0.599, -2.718e-4
-0.598, -3.077e-4
-0.597, -3.311e-4
-0.596, -3.641e-4
-0.595, -3.945e-4
-0.594, -4.325e-4
-0.593, -4.663e-4
-0.592, -5.026e-4
-0.591, -5.341e-4
-0.590, -5.537e-4
-0.589, -5.829e-4
-0.588, -6.145e-4
-0.587, -6.273e-4
-0.586, -6.562e-4
-0.585, -6.836e-4
-0.584, -6.967e-4
-0.583, -7.292e-4
-0.582, -7.604e-4
-0.581, -7.902e-4
-0.580, -8.246e-4
-0.579, -8.571e-4
-0.578, -8.870e-4
-0.577, -9.198e-4
-0.576, -9.411e-4
-0.575, -9.634e-4
-0.574, -9.881e-4
-0.573, -1.012e-3
-0.572, -1.043e-3
-0.571, -1.074e-3
-0.570, -1.101e-3
-0.569, -1.131e-3
-0.568, -1.151e-3
-0.567, -1.177e-3
-0.566, -1.206e-3
-0.565, -1.235e-3
-0.564, -1.259e-3
-0.563, -1.287e-3
-0.562, -1.316e-3
-0.561, -1.344e-3
-0.560, -1.373e-3
-0.559, -1.397e-3
-0.558, -1.420e-3
-0.557, -1.449e-3
-0.556, -1.477e-3
-0.555, -1.497e-3
-0.554, -1.514e-3
-0.553, -1.532e-3
-0.552, -1.558e-3
-0.551, -1.583e-3
-0.550, -1.608e-3
-0.549, -1.632e-3
-0.548, -1.656e-3
-0.547, -1.673e-3
-0.546, -1.698e-3
-0.545, -1.725e-3
-0.544, -1.749e-3
-0.543, -1.776e-3
-0.542, -1.802e-3
-0.541, -1.827e-3
-0.540, -1.850e-3
-0.539, -1.868e-3
-0.538, -1.894e-3
-0.537, -1.920e-3
-0.536, -1.945e-3
-0.535, -1.968e-3
-0.534, -1.992e-3
-0.533, -2.014e-3
-0.532, -2.036e-3
-0.531, -2.059e-3
-0.530, -2.083e-3
-0.529, -2.107e-3
-0.528, -2.128e-3
-0.527, -2.149e-3
-0.526, -2.161e-3
-0.525, -2.170e-3
-0.524, -2.165e-3
-0.523, -2.176e-3
-0.522, -2.189e-3
-0.521, -2.206e-3
-0.520, -2.231e-3
-0.519, -2.253e-3
-0.518, -2.280e-3
-0.517, -2.301e-3
-0.516, -2.319e-3
-0.515, -2.337e-3
-0.514, -2.340e-3
-0.513, -2.363e-3
-0.512, -2.386e-3
-0.511, -2.402e-3
-0.510, -2.423e-3
-0.509, -2.445e-3
-0.508, -2.467e-3
-0.507, -2.488e-3
-0.506, -2.511e-3
-0.505, -2.532e-3
-0.504, -2.555e-3
-0.503, -2.576e-3
-0.502, -2.595e-3
-0.501, -2.609e-3
-0.500, -2.631e-3
-0.499, -2.651e-3
-0.498, -2.671e-3
-0.497, -2.688e-3
-0.496, -2.710e-3
-0.495, -2.729e-3
-0.494, -2.751e-3
-0.493, -2.771e-3
-0.492, -2.789e-3
-0.491, -2.805e-3
-0.490, -2.826e-3
-0.489, -2.846e-3
-0.488, -2.865e-3
-0.487, -2.887e-3
-0.486, -2.904e-3
-0.485, -2.924e-3
-0.484, -2.941e-3
-0.483, -2.959e-3
-0.482, -2.976e-3
-0.481, -2.996e-3
-0.480, -3.014e-3
-0.479, -3.032e-3
-0.478, -3.054e-3
-0.477, -3.070e-3
-0.476, -3.092e-3
-0.475, -3.110e-3
-0.474, -3.128e-3
-0.473, -3.148e-3
-0.472, -3.165e-3
-0.471, -3.184e-3
-0.470, -3.202e-3
-0.469, -3.220e-3
-0.468, -3.241e-3
-0.467, -3.259e-3
-0.466, -3.275e-3
-0.465, -3.294e-3
-0.464, -3.312e-3
-0.463, -3.328e-3
-0.462, -3.344e-3
-0.461, -3.364e-3
-0.460, -3.382e-3
-0.459, -3.396e-3
-0.458, -3.414e-3
-0.457, -3.431e-3
-0.456, -3.447e-3
-0.455, -3.462e-3
-0.454, -3.479e-3
-0.453, -3.498e-3
-0.452, -3.512e-3
-0.451, -3.527e-3
-0.450, -3.545e-3
-0.449, -3.561e-3
-0.448, -3.576e-3
-0.447, -3.592e-3
-0.446, -3.608e-3
-0.445, -3.622e-3
-0.444, -3.639e-3
-0.443, -3.655e-3
-0.442, -3.669e-3
-0.441, -3.686e-3
-0.440, -3.701e-3
-0.439, -3.718e-3
-0.438, -3.735e-3
-0.437, -3.749e-3
-0.436, -3.765e-3
-0.435, -3.780e-3
-0.434, -3.796e-3
-0.433, -3.811e-3
-0.432, -3.826e-3
-0.431, -3.843e-3
-0.430, -3.858e-3
-0.429, -3.874e-3
-0.428, -3.891e-3
-0.427, -3.908e-3
-0.426, -3.922e-3
-0.425, -3.938e-3
-0.424, -3.954e-3
-0.423, -3.970e-3
-0.422, -3.984e-3
-0.421, -3.999e-3
-0.420, -4.014e-3
-0.419, -4.029e-3
-0.418, -4.043e-3
-0.417, -4.059e-3
-0.416, -4.075e-3
-0.415, -4.089e-3
-0.414, -4.105e-3
-0.413, -4.120e-3
-0.412, -4.134e-3
-0.411, -4.149e-3
-0.410, -4.166e-3
-0.409, -4.182e-3
-0.408, -4.196e-3
-0.407, -4.211e-3
-0.406, -4.225e-3
-0.405, -4.238e-3
-0.404, -4.253e-3
-0.403, -4.268e-3
-0.402, -4.284e-3
-0.401, -4.298e-3
-0.400, -4.310e-3
-0.399, -4.326e-3
-0.398, -4.340e-3
-0.397, -4.354e-3
-0.396, -4.369e-3
-0.395, -4.380e-3
-0.394, -4.394e-3
-0.393, -4.407e-3
-0.392, -4.421e-3
-0.391, -4.435e-3
-0.390, -4.450e-3
-0.389, -4.464e-3
-0.388, -4.477e-3
-0.387, -4.489e-3
-0.386, -4.503e-3
-0.385, -4.517e-3
-0.384, -4.530e-3
-0.383, -4.543e-3
-0.382, -4.557e-3
-0.381, -4.569e-3
-0.380, -4.585e-3
-0.379, -4.597e-3
-0.378, -4.611e-3
-0.377, -4.624e-3
-0.376, -4.636e-3
-0.375, -4.650e-3
-0.374, -4.664e-3
-0.373, -4.676e-3
-0.372, -4.691e-3
-0.371, -4.704e-3
-0.370, -4.718e-3
-0.369, -4.732e-3
-0.368, -4.743e-3
-0.367, -4.757e-3
-0.366, -4.770e-3
-0.365, -4.784e-3
-0.364, -4.798e-3
-0.363, -4.810e-3
-0.362, -4.823e-3
-0.361, -4.835e-3
-0.360, -4.848e-3
-0.359, -4.862e-3
-0.358, -4.875e-3
-0.357, -4.888e-3
-0.356, -4.900e-3
-0.355, -4.911e-3
-0.354, -4.924e-3
-0.353, -4.937e-3
-0.352, -4.949e-3
-0.351, -4.963e-3
-0.350, -4.976e-3
-0.349, -4.988e-3
-0.348, -5.002e-3
-0.347, -5.013e-3
-0.346, -5.027e-3
-0.345, -5.042e-3
-0.344, -5.056e-3
-0.343, -5.068e-3
-0.342, -5.081e-3
-0.341, -5.093e-3
-0.340, -5.105e-3
-0.339, -5.117e-3
-0.338, -5.129e-3
-0.337, -5.141e-3
-0.336, -5.153e-3
-0.335, -5.165e-3
-0.334, -5.177e-3
-0.333, -5.190e-3
-0.332, -5.202e-3
-0.331, -5.213e-3
-0.330, -5.226e-3
-0.329, -5.238e-3
-0.328, -5.250e-3
-0.327, -5.263e-3
-0.326, -5.276e-3
-0.325, -5.288e-3
-0.324, -5.300e-3
-0.323, -5.311e-3
-0.322, -5.323e-3
-0.321, -5.335e-3
-0.320, -5.346e-3
-0.319, -5.357e-3
-0.318, -5.369e-3
-0.317, -5.379e-3
-0.316, -5.392e-3
-0.315, -5.403e-3
-0.314, -5.415e-3
-0.313, -5.428e-3
-0.312, -5.439e-3
-0.311, -5.451e-3
-0.310, -5.462e-3
-0.309, -5.473e-3
-0.308, -5.485e-3
-0.307, -5.497e-3
-0.306, -5.508e-3
-0.305, -5.520e-3
-0.304, -5.530e-3
-0.303, -5.543e-3
-0.302, -5.554e-3
-0.301, -5.565e-3
-0.300, -5.577e-3
-0.299, -5.587e-3
-0.298, -5.599e-3
-0.297, -5.609e-3
-0.296, -5.621e-3
-0.295, -5.632e-3
-0.294, -5.645e-3
-0.293, -5.656e-3
-0.292, -5.667e-3
-0.291, -5.678e-3
-0.290, -5.689e-3
-0.289, -5.700e-3
-0.288, -5.712e-3
-0.287, -5.723e-3
-0.286, -5.734e-3
-0.285, -5.745e-3
-0.284, -5.762e-3
-0.283, -5.774e-3
-0.282, -5.785e-3
-0.281, -5.796e-3
-0.280, -5.807e-3
-0.279, -5.818e-3
-0.278, -5.829e-3
-0.277, -5.840e-3
-0.276, -5.851e-3
-0.275, -5.864e-3
-0.274, -5.875e-3
-0.273, -5.886e-3
-0.272, -5.897e-3
-0.271, -5.908e-3
-0.270, -5.919e-3
-0.269, -5.930e-3
-0.268, -5.942e-3
-0.267, -5.952e-3
-0.266, -5.963e-3
-0.265, -5.975e-3
-0.264, -5.984e-3
-0.263, -5.996e-3
-0.262, -6.007e-3
-0.261, -6.018e-3
-0.260, -6.030e-3
-0.259, -6.040e-3
-0.258, -6.051e-3
-0.257, -6.062e-3
-0.256, -6.074e-3
-0.255, -6.085e-3
-0.254, -6.096e-3
-0.253, -6.106e-3
-0.252, -6.118e-3
-0.251, -6.128e-3
-0.250, -6.139e-3
-0.249, -6.151e-3
-0.248, -6.161e-3
-0.247, -6.172e-3
-0.246, -6.183e-3
-0.245, -6.193e-3
-0.244, -6.206e-3
-0.243, -6.215e-3
-0.242, -6.227e-3
-0.241, -6.238e-3
-0.240, -6.248e-3
-0.239, -6.260e-3
-0.238, -6.271e-3
-0.237, -6.281e-3
-0.236, -6.292e-3
-0.235, -6.303e-3
-0.234, -6.313e-3
-0.233, -6.325e-3
-0.232, -6.336e-3
-0.231, -6.346e-3
-0.230, -6.357e-3
-0.229, -6.368e-3
-0.228, -6.378e-3
-0.227, -6.389e-3
-0.226, -6.399e-3
-0.225, -6.410e-3
-0.224, -6.421e-3
-0.223, -6.432e-3
-0.222, -6.443e-3
-0.221, -6.454e-3
-0.220, -6.466e-3
-0.219, -6.475e-3
-0.218, -6.488e-3
-0.217, -6.499e-3
-0.216, -6.508e-3
-0.215, -6.518e-3
-0.214, -6.528e-3
-0.213, -6.539e-3
-0.212, -6.550e-3
-0.211, -6.560e-3
-0.210, -6.570e-3
-0.209, -6.581e-3
-0.208, -6.590e-3
-0.207, -6.601e-3
-0.206, -6.611e-3
-0.205, -6.622e-3
-0.204, -6.633e-3
-0.203, -6.643e-3
-0.202, -6.653e-3
-0.201, -6.664e-3
-0.200, -6.674e-3
-0.199, -6.685e-3
-0.198, -6.697e-3
-0.197, -6.707e-3
-0.196, -6.717e-3
-0.195, -6.727e-3
-0.194, -6.739e-3
-0.193, -6.749e-3
-0.192, -6.760e-3
-0.191, -6.770e-3
-0.190, -6.781e-3
-0.189, -6.790e-3
-0.188, -6.801e-3
-0.187, -6.811e-3
-0.186, -6.823e-3
-0.185, -6.833e-3
-0.184, -6.843e-3
-0.183, -6.853e-3
-0.182, -6.863e-3
-0.181, -6.873e-3
-0.180, -6.884e-3
-0.179, -6.895e-3
-0.178, -6.906e-3
-0.177, -6.917e-3
-0.176, -6.928e-3
-0.175, -6.939e-3
-0.174, -6.950e-3
-0.173, -6.961e-3
-0.172, -6.972e-3
-0.171, -6.982e-3
-0.170, -6.993e-3
-0.169, -7.003e-3
-0.168, -7.014e-3
-0.167, -7.024e-3
-0.166, -7.035e-3
-0.165, -7.044e-3
-0.164, -7.055e-3
-0.163, -7.065e-3
-0.162, -7.075e-3
-0.161, -7.085e-3
-0.160, -7.096e-3
-0.159, -7.107e-3
-0.158, -7.117e-3
-0.157, -7.127e-3
-0.156, -7.138e-3
-0.155, -7.148e-3
-0.154, -7.160e-3
-0.153, -7.172e-3
-0.152, -7.181e-3
-0.151, -7.192e-3
-0.150, -7.202e-3
-0.149, -7.212e-3
-0.148, -7.223e-3
-0.147, -7.234e-3
-0.146, -7.244e-3
-0.145, -7.254e-3
-0.144, -7.265e-3
-0.143, -7.276e-3
-0.142, -7.286e-3
-0.141, -7.296e-3
-0.140, -7.308e-3
-0.139, -7.317e-3
-0.138, -7.328e-3
-0.137, -7.338e-3
-0.136, -7.348e-3
-0.135, -7.359e-3
-0.134, -7.371e-3
-0.133, -7.381e-3
-0.132, -7.392e-3
-0.131, -7.406e-3
-0.130, -7.418e-3
-0.129, -7.429e-3
-0.128, -7.440e-3
-0.127, -7.451e-3
-0.126, -7.462e-3
-0.125, -7.472e-3
-0.124, -7.483e-3
-0.123, -7.493e-3
-0.122, -7.504e-3
-0.121, -7.515e-3
-0.120, -7.525e-3
-0.119, -7.535e-3
-0.118, -7.546e-3
-0.117, -7.556e-3
-0.116, -7.567e-3
-0.115, -7.577e-3
-0.114, -7.587e-3
-0.113, -7.598e-3
-0.112, -7.607e-3
-0.111, -7.618e-3
-0.110, -7.629e-3
-0.109, -7.639e-3
-0.108, -7.650e-3
-0.107, -7.660e-3
-0.106, -7.671e-3
-0.105, -7.682e-3
-0.104, -7.691e-3
-0.103, -7.704e-3
-0.102, -7.716e-3
-0.101, -7.726e-3
-0.100, -7.737e-3
-0.099, -7.746e-3
-0.098, -7.758e-3
-0.097, -7.769e-3
-0.096, -7.780e-3
-0.095, -7.791e-3
-0.094, -7.801e-3
-0.093, -7.811e-3
-0.092, -7.822e-3
-0.091, -7.832e-3
-0.090, -7.843e-3
-0.089, -7.854e-3
-0.088, -7.863e-3
-0.087, -7.873e-3
-0.086, -7.885e-3
-0.085, -7.896e-3
-0.084, -7.906e-3
-0.083, -7.917e-3
-0.082, -7.929e-3
-0.081, -7.939e-3
-0.080, -7.949e-3
-0.079, -7.960e-3
-0.078, -7.970e-3
-0.077, -7.981e-3
-0.076, -7.992e-3
-0.075, -8.002e-3
-0.074, -8.013e-3
-0.073, -8.024e-3
-0.072, -8.034e-3
-0.071, -8.045e-3
-0.070, -8.056e-3
-0.069, -8.067e-3
-0.068, -8.078e-3
-0.067, -8.088e-3
-0.066, -8.098e-3
-0.065, -8.108e-3
-0.064, -8.119e-3
-0.063, -8.131e-3
-0.062, -8.141e-3
-0.061, -8.152e-3
-0.060, -8.162e-3
-0.059, -8.172e-3
-0.058, -8.184e-3
-0.057, -8.196e-3
-0.056, -8.206e-3
-0.055, -8.218e-3
-0.054, -8.228e-3
-0.053, -8.239e-3
-0.052, -8.250e-3
-0.051, -8.263e-3
-0.050, -8.273e-3
-0.049, -8.284e-3
-0.048, -8.293e-3
-0.047, -8.304e-3
-0.046, -8.315e-3
-0.045, -8.327e-3
-0.044, -8.337e-3
-0.043, -8.347e-3
-0.042, -8.358e-3
-0.041, -8.370e-3
-0.040, -8.380e-3
-0.039, -8.391e-3
-0.038, -8.403e-3
-0.037, -8.414e-3
-0.036, -8.426e-3
-0.035, -8.437e-3
-0.034, -8.448e-3
-0.033, -8.460e-3
-0.032, -8.472e-3
-0.031, -8.484e-3
-0.030, -8.494e-3
-0.029, -8.505e-3
-0.028, -8.516e-3
-0.027, -8.526e-3
-0.026, -8.538e-3
-0.025, -8.550e-3
-0.024, -8.560e-3
-0.023, -8.572e-3
-0.022, -8.583e-3
-0.021, -8.594e-3
-0.020, -8.605e-3
-0.019, -8.618e-3
-0.018, -8.629e-3
-0.017, -8.640e-3
-0.016, -8.651e-3
-0.015, -8.663e-3
-0.014, -8.675e-3
-0.013, -8.687e-3
-0.012, -8.698e-3
-0.011, -8.709e-3
-0.010, -8.721e-3
-0.009, -8.732e-3
-0.008, -8.744e-3
-0.007, -8.755e-3
-0.006, -8.766e-3
-0.005, -8.777e-3
-0.004, -8.788e-3
-0.003, -8.799e-3
-0.002, -8.810e-3
-0.001, -8.822e-3
-0.000, -8.840e-3
0.001, -8.851e-3
0.002, -8.863e-3
0.003, -8.875e-3
0.004, -8.887e-3
0.005, -8.899e-3
0.006, -8.911e-3
0.007, -8.923e-3
0.008, -8.934e-3
0.009, -8.945e-3
0.010, -8.956e-3
0.011, -8.968e-3
0.012, -8.979e-3
0.013, -8.990e-3
0.014, -9.002e-3
0.015, -9.015e-3
0.016, -9.025e-3
0.017, -9.036e-3
0.018, -9.049e-3
0.019, -9.061e-3
0.020, -9.073e-3
0.021, -9.084e-3
0.022, -9.097e-3
0.023, -9.108e-3
0.024, -9.119e-3
0.025, -9.132e-3
0.026, -9.144e-3
0.027, -9.156e-3
0.028, -9.168e-3
0.029, -9.180e-3
0.030, -9.192e-3
0.031, -9.203e-3
0.032, -9.215e-3
0.033, -9.227e-3
0.034, -9.239e-3
0.035, -9.250e-3
0.036, -9.263e-3
0.037, -9.274e-3
0.038, -9.287e-3
0.039, -9.299e-3
0.040, -9.310e-3
0.041, -9.323e-3
0.042, -9.335e-3
0.043, -9.347e-3
0.044, -9.359e-3
0.045, -9.371e-3
0.046, -9.383e-3
0.047, -9.395e-3
0.048, -9.406e-3
0.049, -9.417e-3
0.050, -9.430e-3
0.051, -9.442e-3
0.052, -9.454e-3
0.053, -9.466e-3
0.054, -9.477e-3
0.055, -9.489e-3
0.056, -9.501e-3
0.057, -9.514e-3
0.058, -9.527e-3
0.059, -9.539e-3
0.060, -9.551e-3
0.061, -9.562e-3
0.062, -9.574e-3
0.063, -9.586e-3
0.064, -9.598e-3
0.065, -9.611e-3
0.066, -9.623e-3
0.067, -9.635e-3
0.068, -9.647e-3
0.069, -9.659e-3
0.070, -9.672e-3
0.071, -9.685e-3
0.072, -9.696e-3
0.073, -9.709e-3
0.074, -9.721e-3
0.075, -9.734e-3
0.076, -9.746e-3
0.077, -9.759e-3
0.078, -9.770e-3
0.079, -9.782e-3
0.080, -9.793e-3
0.081, -9.806e-3
0.082, -9.818e-3
0.083, -9.830e-3
0.084, -9.843e-3
0.085, -9.855e-3
0.086, -9.867e-3
0.087, -9.881e-3
0.088, -9.893e-3
0.089, -9.906e-3
0.090, -9.919e-3
0.091, -9.930e-3
0.092, -9.943e-3
0.093, -9.955e-3
0.094, -9.968e-3
0.095, -9.980e-3
0.096, -9.991e-3
0.097, -1.000e-2
0.098, -1.002e-2
0.099, -1.003e-2
0.100, -1.004e-2
0.101, -1.005e-2
0.102, -1.006e-2
0.103, -1.008e-2
0.104, -1.009e-2
0.105, -1.010e-2
0.106, -1.011e-2
0.107, -1.013e-2
0.108, -1.014e-2
0.109, -1.015e-2
0.110, -1.016e-2
0.111, -1.018e-2
0.112, -1.019e-2
0.113, -1.020e-2
0.114, -1.021e-2
0.115, -1.022e-2
0.116, -1.024e-2
0.117, -1.025e-2
0.118, -1.026e-2
0.119, -1.027e-2
0.120, -1.028e-2
0.121, -1.030e-2
0.122, -1.031e-2
0.123, -1.032e-2
0.124, -1.034e-2
0.125, -1.035e-2
0.126, -1.036e-2
0.127, -1.037e-2
0.128, -1.039e-2
0.129, -1.040e-2
0.130, -1.041e-2
0.131, -1.042e-2
0.132, -1.044e-2
0.133, -1.045e-2
0.134, -1.046e-2
0.135, -1.047e-2
0.136, -1.049e-2
0.137, -1.050e-2
0.138, -1.051e-2
0.139, -1.052e-2
0.140, -1.053e-2
0.141, -1.055e-2
0.142, -1.056e-2
0.143, -1.057e-2
0.144, -1.058e-2
0.145, -1.060e-2
0.146, -1.061e-2
0.147, -1.062e-2
0.148, -1.063e-2
0.149, -1.065e-2
0.150, -1.066e-2
0.151, -1.067e-2
0.152, -1.068e-2
0.153, -1.070e-2
0.154, -1.071e-2
0.155, -1.072e-2
0.156, -1.073e-2
0.157, -1.075e-2
0.158, -1.076e-2
0.159, -1.077e-2
0.160, -1.078e-2
0.161, -1.080e-2
0.162, -1.081e-2
0.163, -1.082e-2
0.164, -1.084e-2
0.165, -1.085e-2
0.166, -1.086e-2
0.167, -1.087e-2
0.168, -1.088e-2
0.169, -1.090e-2
0.170, -1.091e-2
0.171, -1.092e-2
0.172, -1.093e-2
0.173, -1.094e-2
0.174, -1.096e-2
0.175, -1.097e-2
0.176, -1.098e-2
0.177, -1.100e-2
0.178, -1.101e-2
0.179, -1.102e-2
0.180, -1.103e-2
0.181, -1.104e-2
0.182, -1.106e-2
0.183, -1.107e-2
0.184, -1.108e-2
0.185, -1.109e-2
0.186, -1.111e-2
0.187, -1.112e-2
0.188, -1.113e-2
0.189, -1.114e-2
0.190, -1.116e-2
0.191, -1.117e-2
0.192, -1.118e-2
0.193, -1.119e-2
0.194, -1.121e-2
0.195, -1.122e-2
0.196, -1.123e-2
0.197, -1.124e-2
0.198, -1.126e-2
0.199, -1.127e-2
0.200, -1.128e-2
0.201, -1.129e-2
0.202, -1.130e-2
0.203, -1.132e-2
0.204, -1.133e-2
0.205, -1.134e-2
0.206, -1.135e-2
0.207, -1.137e-2
0.208, -1.138e-2
0.209, -1.139e-2
0.210, -1.140e-2
0.211, -1.142e-2
0.212, -1.143e-2
0.213, -1.144e-2
0.214, -1.145e-2
0.215, -1.146e-2
0.216, -1.148e-2
0.217, -1.149e-2
0.218, -1.150e-2
0.219, -1.151e-2
0.220, -1.153e-2
0.221, -1.154e-2
0.222, -1.155e-2
0.223, -1.157e-2
0.224, -1.158e-2
0.225, -1.159e-2
0.226, -1.160e-2
0.227, -1.161e-2
0.228, -1.163e-2
0.229, -1.164e-2
0.230, -1.165e-2
0.231, -1.166e-2
0.232, -1.168e-2
0.233, -1.169e-2
0.234, -1.170e-2
0.235, -1.171e-2
0.236, -1.172e-2
0.237, -1.173e-2
0.238, -1.175e-2
0.239, -1.176e-2
0.240, -1.177e-2
0.241, -1.178e-2
0.242, -1.180e-2
0.243, -1.181e-2
0.244, -1.182e-2
0.245, -1.183e-2
0.246, -1.185e-2
0.247, -1.186e-2
0.248, -1.187e-2
0.249, -1.188e-2
0.250, -1.190e-2
0.251, -1.191e-2
0.252, -1.192e-2
0.253, -1.193e-2
0.254, -1.194e-2
0.255, -1.195e-2
0.256, -1.197e-2
0.257, -1.198e-2
0.258, -1.199e-2
0.259, -1.200e-2
0.260, -1.202e-2
0.261, -1.203e-2
0.262, -1.204e-2
0.263, -1.205e-2
0.264, -1.206e-2
0.265, -1.208e-2
0.266, -1.209e-2
0.267, -1.210e-2
0.268, -1.211e-2
0.269, -1.212e-2
0.270, -1.214e-2
0.271, -1.215e-2
0.272, -1.216e-2
0.273, -1.217e-2
0.274, -1.218e-2
0.275, -1.219e-2
0.276, -1.221e-2
0.277, -1.222e-2
0.278, -1.223e-2
0.279, -1.224e-2
0.280, -1.225e-2
0.281, -1.227e-2
0.282, -1.228e-2
0.283, -1.229e-2
0.284, -1.231e-2
0.285, -1.232e-2
0.286, -1.233e-2
0.287, -1.234e-2
0.288, -1.236e-2
0.289, -1.237e-2
0.290, -1.238e-2
0.291, -1.239e-2
0.292, -1.240e-2
0.293, -1.241e-2
0.294, -1.243e-2
0.295, -1.244e-2
0.296, -1.245e-2
0.297, -1.246e-2
0.298, -1.247e-2
0.299, -1.248e-2
0.300, -1.250e-2
0.301, -1.251e-2
0.302, -1.252e-2
0.303, -1.253e-2
0.304, -1.254e-2
0.305, -1.256e-2
0.306, -1.257e-2
0.307, -1.258e-2
0.308, -1.260e-2
0.309, -1.261e-2
0.310, -1.262e-2
0.311, -1.263e-2
0.312, -1.264e-2
0.313, -1.265e-2
0.314, -1.266e-2
0.315, -1.268e-2
0.316, -1.269e-2
0.317, -1.270e-2
0.318, -1.271e-2
0.319, -1.272e-2
0.320, -1.274e-2
0.321, -1.275e-2
0.322, -1.276e-2
0.323, -1.277e-2
0.324, -1.278e-2
0.325, -1.280e-2
0.326, -1.281e-2
0.327, -1.282e-2
0.328, -1.283e-2
0.329, -1.284e-2
0.330, -1.285e-2
0.331, -1.287e-2
0.332, -1.288e-2
0.333, -1.289e-2
0.334, -1.290e-2
0.335, -1.291e-2
0.336, -1.292e-2
0.337, -1.294e-2
0.338, -1.295e-2
0.339, -1.296e-2
0.340, -1.297e-2
0.341, -1.298e-2
0.342, -1.300e-2
0.343, -1.301e-2
0.344, -1.302e-2
0.345, -1.303e-2
0.346, -1.304e-2
0.347, -1.305e-2
0.348, -1.307e-2
0.349, -1.308e-2
0.350, -1.309e-2
0.351, -1.310e-2
0.352, -1.311e-2
0.353, -1.312e-2
0.354, -1.313e-2
0.355, -1.315e-2
0.356, -1.316e-2
0.357, -1.317e-2
0.358, -1.318e-2
0.359, -1.319e-2
0.360, -1.321e-2
0.361, -1.322e-2
0.362, -1.323e-2
0.363, -1.324e-2
0.364, -1.325e-2
0.365, -1.327e-2
0.366, -1.328e-2
0.367, -1.329e-2
0.368, -1.330e-2
0.369, -1.331e-2
0.370, -1.332e-2
0.371, -1.334e-2
0.372, -1.335e-2
0.373, -1.336e-2
0.374, -1.337e-2
0.375, -1.338e-2
0.376, -1.339e-2
0.377, -1.340e-2
0.378, -1.341e-2
0.379, -1.343e-2
0.380, -1.344e-2
0.381, -1.345e-2
0.382, -1.346e-2
0.383, -1.347e-2
0.384, -1.348e-2
0.385, -1.349e-2
0.386, -1.350e-2
0.387, -1.352e-2
0.388, -1.353e-2
0.389, -1.354e-2
0.390, -1.355e-2
0.391, -1.356e-2
0.392, -1.357e-2
0.393, -1.359e-2
0.394, -1.360e-2
0.395, -1.361e-2
0.396, -1.363e-2
0.397, -1.365e-2
0.398, -1.367e-2
0.399, -1.368e-2
0.400, -1.369e-2
0.401, -1.370e-2
0.402, -1.371e-2
0.403, -1.372e-2
0.404, -1.373e-2
0.405, -1.374e-2
0.406, -1.375e-2
0.407, -1.377e-2
0.408, -1.378e-2
0.409, -1.379e-2
0.410, -1.381e-2
0.411, -1.382e-2
0.412, -1.383e-2
0.413, -1.384e-2
0.414, -1.385e-2
0.415, -1.386e-2
0.416, -1.388e-2
0.417, -1.389e-2
0.418, -1.390e-2
0.419, -1.391e-2
0.420, -1.392e-2
0.421, -1.394e-2
0.422, -1.395e-2
0.423, -1.396e-2
0.424, -1.397e-2
0.425, -1.398e-2
0.426, -1.400e-2
0.427, -1.401e-2
0.428, -1.402e-2
0.429, -1.404e-2
0.430, -1.405e-2
0.431, -1.406e-2
0.432, -1.407e-2
0.433, -1.408e-2
0.434, -1.410e-2
0.435, -1.411e-2
0.436, -1.412e-2
0.437, -1.413e-2
0.438, -1.415e-2
0.439, -1.416e-2
0.440, -1.418e-2
0.441, -1.419e-2
0.442, -1.420e-2
0.443, -1.422e-2
0.444, -1.423e-2
0.445, -1.424e-2
0.446, -1.426e-2
0.447, -1.427e-2
0.448, -1.428e-2
0.449, -1.430e-2
0.450, -1.431e-2
0.451, -1.432e-2
0.452, -1.433e-2
0.453, -1.435e-2
0.454, -1.436e-2
0.455, -1.438e-2
0.456, -1.439e-2
0.457, -1.440e-2
0.458, -1.442e-2
0.459, -1.443e-2
0.460, -1.444e-2
0.461, -1.446e-2
0.462, -1.447e-2
0.463, -1.448e-2
0.464, -1.450e-2
0.465, -1.451e-2
0.466, -1.452e-2
0.467, -1.454e-2
0.468, -1.455e-2
0.469, -1.457e-2
0.470, -1.458e-2
0.471, -1.459e-2
0.472, -1.461e-2
0.473, -1.462e-2
0.474, -1.464e-2
0.475, -1.465e-2
0.476, -1.466e-2
0.477, -1.467e-2
0.478, -1.469e-2
0.479, -1.470e-2
0.480, -1.472e-2
0.481, -1.473e-2
0.482, -1.474e-2
0.483, -1.476e-2
0.484, -1.477e-2
0.485, -1.478e-2
0.486, -1.480e-2
0.487, -1.481e-2
0.488, -1.482e-2
0.489, -1.484e-2
0.490, -1.485e-2
0.491, -1.486e-2
0.492, -1.487e-2
0.493, -1.489e-2
0.494, -1.490e-2
0.495, -1.491e-2
0.496, -1.492e-2
0.497, -1.494e-2
0.498, -1.495e-2
0.499, -1.496e-2
0.500, -1.497e-2
0.501, -1.498e-2
0.502, -1.500e-2
0.503, -1.501e-2
0.504, -1.502e-2
0.505, -1.503e-2
0.506, -1.504e-2
0.507, -1.505e-2
0.508, -1.507e-2
0.509, -1.508e-2
0.510, -1.509e-2
0.511, -1.510e-2
0.512, -1.511e-2
0.513, -1.512e-2
0.514, -1.513e-2
0.515, -1.512e-2
0.516, -1.512e-2
0.517, -1.513e-2
0.518, -1.514e-2
0.519, -1.515e-2
0.520, -1.516e-2
0.521, -1.517e-2
0.522, -1.518e-2
0.523, -1.519e-2
0.524, -1.520e-2
0.525, -1.521e-2
0.526, -1.522e-2
0.527, -1.522e-2
0.528, -1.523e-2
0.529, -1.524e-2
0.530, -1.525e-2
0.531, -1.525e-2
0.532, -1.526e-2
0.533, -1.527e-2
0.534, -1.528e-2
0.535, -1.529e-2
0.536, -1.529e-2
0.537, -1.530e-2
0.538, -1.531e-2
0.539, -1.532e-2
0.540, -1.532e-2
0.541, -1.533e-2
0.542, -1.534e-2
0.543, -1.534e-2
0.544, -1.535e-2
0.545, -1.536e-2
0.546, -1.536e-2
0.547, -1.537e-2
0.548, -1.538e-2
0.549, -1.538e-2
0.550, -1.539e-2
0.551, -1.540e-2
0.552, -1.540e-2
0.553, -1.541e-2
0.554, -1.543e-2
0.555, -1.544e-2
0.556, -1.545e-2
0.557, -1.546e-2
0.558, -1.547e-2
0.559, -1.548e-2
0.560, -1.548e-2
0.561, -1.549e-2
0.562, -1.549e-2
0.563, -1.550e-2
0.564, -1.550e-2
0.565, -1.551e-2
0.566, -1.551e-2
0.567, -1.552e-2
0.568, -1.552e-2
0.569, -1.552e-2
0.570, -1.553e-2
0.571, -1.553e-2
0.572, -1.554e-2
0.573, -1.554e-2
0.574, -1.554e-2
0.575, -1.555e-2
0.576, -1.555e-2
0.577, -1.556e-2
0.578, -1.556e-2
0.579, -1.556e-2
0.580, -1.557e-2
0.581, -1.557e-2
0.582, -1.558e-2
0.583, -1.558e-2
0.584, -1.558e-2
0.585, -1.559e-2
0.586, -1.559e-2
0.587, -1.559e-2
0.588, -1.560e-2
0.589, -1.560e-2
0.590, -1.560e-2
0.591, -1.560e-2
0.592, -1.561e-2
0.593, -1.561e-2
0.594, -1.561e-2
0.595, -1.561e-2
0.596, -1.562e-2
0.597, -1.562e-2
0.598, -1.562e-2
0.599, -1.562e-2
0.600, -1.562e-2
0.601, -1.563e-2
0.602, -1.563e-2
0.603, -1.563e-2
0.604, -1.564e-2
0.605, -1.564e-2
0.606, -1.564e-2
0.607, -1.564e-2
0.608, -1.564e-2
0.609, -1.565e-2
0.610, -1.565e-2
0.611, -1.565e-2
0.612, -1.565e-2
0.613, -1.566e-2
0.614, -1.566e-2
0.615, -1.566e-2
0.616, -1.567e-2
0.617, -1.569e-2
0.618, -1.570e-2
0.619, -1.570e-2
0.620, -1.570e-2
0.621, -1.571e-2
0.622, -1.571e-2
0.623, -1.571e-2
0.624, -1.571e-2
0.625, -1.571e-2
0.626, -1.572e-2
0.627, -1.572e-2
0.628, -1.572e-2
0.629, -1.572e-2
0.630, -1.572e-2
0.631, -1.573e-2
0.632, -1.573e-2
0.633, -1.573e-2
0.634, -1.573e-2
0.635, -1.573e-2
0.636, -1.574e-2
0.637, -1.574e-2
0.638, -1.577e-2
0.639, -1.577e-2
0.640, -1.577e-2
0.641, -1.577e-2
0.642, -1.577e-2
0.643, -1.577e-2
0.644, -1.577e-2
0.645, -1.577e-2
0.646, -1.578e-2
0.647, -1.578e-2
0.648, -1.577e-2
0.649, -1.577e-2
0.650, -1.578e-2
0.651, -1.578e-2
0.652, -1.578e-2
0.653, -1.578e-2
0.654, -1.579e-2
0.655, -1.579e-2
0.656, -1.579e-2
0.657, -1.579e-2
0.658, -1.579e-2
0.659, -1.580e-2
0.660, -1.580e-2
0.661, -1.580e-2
0.662, -1.580e-2
0.663, -1.581e-2
0.664, -1.581e-2
0.665, -1.581e-2
0.666, -1.582e-2
0.667, -1.582e-2
0.668, -1.582e-2
0.669, -1.582e-2
0.670, -1.582e-2
0.671, -1.583e-2
0.672, -1.583e-2
0.673, -1.583e-2
0.674, -1.583e-2
0.675, -1.583e-2
0.676, -1.584e-2
0.677, -1.584e-2
0.678, -1.584e-2
0.679, -1.584e-2
0.680, -1.585e-2
0.681, -1.585e-2
0.682, -1.585e-2
0.683, -1.585e-2
0.684, -1.585e-2
0.685, -1.586e-2
0.686, -1.586e-2
0.687, -1.586e-2
0.688, -1.586e-2
0.689, -1.586e-2
0.690, -1.586e-2
0.691, -1.587e-2
0.692, -1.587e-2
0.693, -1.587e-2
0.694, -1.587e-2
0.695, -1.587e-2
0.696, -1.588e-2
0.697, -1.588e-2
0.698, -1.588e-2
0.699, -1.588e-2
0.700, -1.588e-2
0.701, -1.588e-2
0.702, -1.589e-2
0.703, -1.589e-2
0.704, -1.589e-2
0.705, -1.589e-2
0.706, -1.589e-2
0.707, -1.590e-2
0.708, -1.590e-2
0.709, -1.590e-2
0.710, -1.590e-2
0.711, -1.591e-2
0.712, -1.591e-2
0.713, -1.591e-2
0.714, -1.591e-2
0.715, -1.591e-2
0.716, -1.591e-2
0.717, -1.592e-2
0.718, -1.592e-2
0.719, -1.592e-2
0.720, -1.592e-2
0.721, -1.592e-2
0.722, -1.592e-2
0.723, -1.593e-2
0.724, -1.593e-2
0.725, -1.593e-2
0.726, -1.593e-2
0.727, -1.593e-2
0.728, -1.594e-2
0.729, -1.594e-2
0.730, -1.594e-2
0.731, -1.594e-2
0.732, -1.594e-2
0.733, -1.595e-2
0.734, -1.595e-2
0.735, -1.595e-2
0.736, -1.595e-2
0.737, -1.595e-2
0.738, -1.596e-2
0.739, -1.596e-2
0.740, -1.596e-2
0.741, -1.596e-2
0.742, -1.596e-2
0.743, -1.597e-2
0.744, -1.597e-2
0.745, -1.597e-2
0.746, -1.597e-2
0.747, -1.597e-2
0.748, -1.597e-2
0.749, -1.598e-2
0.750, -1.598e-2
0.751, -1.598e-2
0.752, -1.598e-2
0.753, -1.599e-2
0.754, -1.599e-2
0.755, -1.599e-2
0.756, -1.599e-2
0.757, -1.599e-2
0.758, -1.600e-2
0.759, -1.600e-2
0.760, -1.600e-2
0.761, -1.600e-2
0.762, -1.601e-2
0.763, -1.601e-2
0.764, -1.601e-2
0.765, -1.601e-2
0.766, -1.602e-2
0.767, -1.602e-2
0.768, -1.602e-2
0.769, -1.602e-2
0.770, -1.603e-2
0.771, -1.603e-2
0.772, -1.603e-2
0.773, -1.603e-2
0.774, -1.604e-2
0.775, -1.604e-2
0.776, -1.604e-2
0.777, -1.604e-2
0.778, -1.605e-2
0.779, -1.605e-2
0.780, -1.605e-2
0.781, -1.605e-2
0.782, -1.605e-2
0.783, -1.606e-2
0.784, -1.606e-2
0.785, -1.606e-2
0.786, -1.606e-2
0.787, -1.607e-2
0.788, -1.607e-2
0.789, -1.607e-2
0.790, -1.607e-2
0.791, -1.608e-2
0.792, -1.608e-2
0.793, -1.608e-2
0.794, -1.608e-2
0.795, -1.609e-2
0.796, -1.609e-2
0.797, -1.609e-2
0.798, -1.609e-2
0.799, -1.610e-2
0.800, -1.600e-2
0.799, -1.577e-2
0.798, -1.558e-2
0.797, -1.541e-2
0.796, -1.525e-2
0.795, -1.511e-2
0.794, -1.497e-2
0.793, -1.483e-2
0.792, -1.470e-2
0.791, -1.458e-2
0.790, -1.445e-2
0.789, -1.434e-2
0.788, -1.422e-2
0.787, -1.411e-2
0.786, -1.399e-2
0.785, -1.389e-2
0.784, -1.378e-2
0.783, -1.367e-2
0.782, -1.357e-2
0.781, -1.347e-2
0.780, -1.337e-2
0.779, -1.327e-2
0.778, -1.318e-2
0.777, -1.308e-2
0.776, -1.299e-2
0.775, -1.289e-2
0.774, -1.280e-2
0.773, -1.271e-2
0.772, -1.262e-2
0.771, -1.253e-2
0.770, -1.244e-2
0.769, -1.236e-2
0.768, -1.227e-2
0.767, -1.218e-2
0.766, -1.210e-2
0.765, -1.202e-2
0.764, -1.193e-2
0.763, -1.185e-2
0.762, -1.177e-2
0.761, -1.169e-2
0.760, -1.162e-2
0.759, -1.154e-2
0.758, -1.146e-2
0.757, -1.138e-2
0.756, -1.130e-2
0.755, -1.123e-2
0.754, -1.115e-2
0.753, -1.108e-2
0.752, -1.100e-2
0.751, -1.092e-2
0.750, -1.085e-2
0.749, -1.078e-2
0.748, -1.070e-2
0.747, -1.064e-2
0.746, -1.057e-2
0.745, -1.050e-2
0.744, -1.043e-2
0.743, -1.036e-2
0.742, -1.029e-2
0.741, -1.023e-2
0.740, -1.016e-2
0.739, -1.009e-2
0.738, -1.003e-2
0.737, -9.966e-3
0.736, -9.899e-3
0.735, -9.834e-3
0.734, -9.772e-3
0.733, -9.707e-3
0.732, -9.646e-3
0.731, -9.583e-3
0.730, -9.520e-3
0.729, -9.461e-3
0.728, -9.399e-3
0.727, -9.340e-3
0.726, -9.282e-3
0.725, -9.221e-3
0.724, -9.162e-3
0.723, -9.101e-3
0.722, -9.042e-3
0.721, -8.986e-3
0.720, -8.929e-3
0.719, -8.869e-3
0.718, -8.812e-3
0.717, -8.756e-3
0.716, -8.699e-3
0.715, -8.644e-3
0.714, -8.587e-3
0.713, -8.533e-3
0.712, -8.479e-3
0.711, -8.422e-3
0.710, -8.366e-3
0.709, -8.312e-3
0.708, -8.258e-3
0.707, -8.205e-3
0.706, -8.152e-3
0.705, -8.099e-3
0.704, -8.046e-3
0.703, -7.993e-3
0.702, -7.941e-3
0.701, -7.890e-3
0.700, -7.839e-3
0.699, -7.790e-3
0.698, -7.738e-3
0.697, -7.685e-3
0.696, -7.635e-3
0.695, -7.586e-3
0.694, -7.537e-3
0.693, -7.488e-3
0.692, -7.438e-3
0.691, -7.388e-3
0.690, -7.337e-3
0.689, -7.289e-3
0.688, -7.240e-3
0.687, -7.192e-3
0.686, -7.144e-3
0.685, -7.096e-3
0.684, -7.050e-3
0.683, -7.003e-3
0.682, -6.956e-3
0.681, -6.909e-3
0.680, -6.863e-3
0.679, -6.817e-3
0.678, -6.772e-3
0.677, -6.725e-3
0.676, -6.679e-3
0.675, -6.635e-3
0.674, -6.592e-3
0.673, -6.549e-3
0.672, -6.504e-3
0.671, -6.458e-3
0.670, -6.413e-3
0.669, -6.369e-3
0.668, -6.327e-3
0.667, -6.283e-3
0.666, -6.239e-3
0.665, -6.195e-3
0.664, -6.153e-3
0.663, -6.110e-3
0.662, -6.068e-3
0.661, -6.026e-3
0.660, -5.983e-3
0.659, -5.941e-3
0.658, -5.900e-3
0.657, -5.860e-3
0.656, -5.819e-3
0.655, -5.778e-3
0.654, -5.737e-3
0.653, -5.696e-3
0.652, -5.655e-3
0.651, -5.616e-3
0.650, -5.575e-3
0.649, -5.535e-3
0.648, -5.496e-3
0.647, -5.458e-3
0.646, -5.417e-3
0.645, -5.378e-3
0.644, -5.341e-3
0.643, -5.303e-3
0.642, -5.264e-3
0.641, -5.226e-3
0.640, -5.187e-3
0.639, -5.147e-3
0.638, -5.110e-3
0.637, -5.073e-3
0.636, -5.034e-3
0.635, -4.996e-3
0.634, -4.956e-3
0.633, -4.918e-3
0.632, -4.882e-3
0.631, -4.844e-3
0.630, -4.807e-3
0.629, -4.770e-3
0.628, -4.732e-3
0.627, -4.694e-3
0.626, -4.658e-3
0.625, -4.622e-3
0.624, -4.586e-3
0.623, -4.548e-3
0.622, -4.513e-3
0.621, -4.476e-3
0.620, -4.441e-3
0.619, -4.407e-3
0.618, -4.371e-3
0.617, -4.335e-3
0.616, -4.300e-3
0.615, -4.264e-3
0.614, -4.227e-3
0.613, -4.191e-3
0.612, -4.156e-3
0.611, -4.121e-3
0.610, -4.086e-3
0.609, -4.051e-3
0.608, -4.017e-3
0.607, -3.982e-3
0.606, -3.948e-3
0.605, -3.913e-3
0.604, -3.878e-3
0.603, -3.844e-3
0.602, -3.810e-3
0.601, -3.776e-3
0.600, -3.743e-3
0.599, -3.709e-3
0.598, -3.676e-3
0.597, -3.645e-3
0.596, -3.613e-3
0.595, -3.580e-3
0.594, -3.547e-3
0.593, -3.514e-3
0.592, -3.481e-3
0.591, -3.446e-3
0.590, -3.414e-3
0.589, -3.382e-3
0.588, -3.348e-3
0.587, -3.316e-3
0.586, -3.283e-3
0.585, -3.250e-3
0.584, -3.218e-3
0.583, -3.184e-3
0.582, -3.153e-3
0.581, -3.125e-3
0.580, -3.098e-3
0.579, -3.066e-3
0.578, -3.032e-3
0.577, -2.999e-3
0.576, -2.968e-3
0.575, -2.938e-3
0.574, -2.908e-3
0.573, -2.877e-3
0.572, -2.845e-3
0.571, -2.813e-3
0.570, -2.780e-3
0.569, -2.747e-3
0.568, -2.716e-3
0.567, -2.685e-3
0.566, -2.654e-3
0.565, -2.622e-3
0.564, -2.590e-3
0.563, -2.558e-3
0.562, -2.525e-3
0.561, -2.495e-3
0.560, -2.464e-3
0.559, -2.433e-3
0.558, -2.401e-3
0.557, -2.370e-3
0.556, -2.338e-3
0.555, -2.307e-3
0.554, -2.276e-3
0.553, -2.245e-3
0.552, -2.214e-3
0.551, -2.183e-3
0.550, -2.152e-3
0.549, -2.122e-3
0.548, -2.090e-3
0.547, -2.060e-3
0.546, -2.029e-3
0.545, -2.000e-3
0.544, -1.968e-3
0.543, -1.937e-3
0.542, -1.906e-3
0.541, -1.875e-3
0.540, -1.843e-3
0.539, -1.814e-3
0.538, -1.783e-3
0.537, -1.753e-3
0.536, -1.722e-3
0.535, -1.692e-3
0.534, -1.662e-3
0.533, -1.632e-3
0.532, -1.600e-3
0.531, -1.570e-3
0.530, -1.541e-3
0.529, -1.512e-3
0.528, -1.483e-3
0.527, -1.453e-3
0.526, -1.424e-3
0.525, -1.393e-3
0.524, -1.361e-3
0.523, -1.332e-3
0.522, -1.301e-3
0.521, -1.271e-3
0.520, -1.241e-3
0.519, -1.210e-3
0.518, -1.179e-3
0.517, -1.150e-3
0.516, -1.118e-3
0.515, -1.089e-3
0.514, -1.058e-3
0.513, -1.028e-3
0.512, -9.963e-4
0.511, -9.662e-4
0.510, -9.358e-4
0.509, -9.065e-4
0.508, -8.747e-4
0.507, -8.455e-4
0.506, -8.142e-4
0.505, -7.838e-4
0.504, -7.539e-4
0.503, -7.236e-4
0.502, -6.947e-4
0.501, -6.647e-4
0.500, -6.335e-4
0.499, -6.039e-4
0.498, -5.730e-4
0.497, -5.431e-4
0.496, -5.128e-4
0.495, -4.813e-4
0.494, -4.509e-4
0.493, -4.201e-4
0.492, -3.883e-4
0.491, -3.597e-4
0.490, -3.294e-4
0.489, -3.008e-4
0.488, -2.709e-4
0.487, -2.407e-4
0.486, -2.107e-4
0.485, -1.807e-4
0.484, -1.505e-4
0.483, -1.214e-4
0.482, -9.143e-5
0.481, -6.244e-5
0.480, -3.189e-5
0.479, -8.640e-7
0.478, 2.961e-5
0.477, 5.954e-5
0.476, 9.001e-5
0.475, 1.172e-4
0.474, 1.463e-4
0.473, 1.744e-4
0.472, 2.042e-4
0.471, 2.339e-4
0.470, 2.632e-4
0.469, 2.920e-4
0.468, 3.222e-4
0.467, 3.524e-4
0.466, 3.835e-4
0.465, 4.131e-4
0.464, 4.437e-4
0.463, 4.727e-4
0.462, 5.019e-4
0.461, 5.321e-4
0.460, 5.622e-4
0.459, 5.907e-4
0.458, 6.202e-4
0.457, 6.490e-4
0.456, 6.789e-4
0.455, 7.081e-4
0.454, 7.381e-4
0.453, 7.662e-4
0.452, 7.962e-4
0.451, 8.241e-4
0.450, 8.536e-4
0.449, 8.820e-4
0.448, 9.104e-4
0.447, 9.374e-4
0.446, 9.653e-4
0.445, 9.926e-4
0.444, 1.022e-3
0.443, 1.049e-3
0.442, 1.076e-3
0.441, 1.104e-3
0.440, 1.132e-3
0.439, 1.162e-3
0.438, 1.189e-3
0.437, 1.216e-3
0.436, 1.244e-3
0.435, 1.270e-3
0.434, 1.297e-3
0.433, 1.323e-3
0.432, 1.350e-3
0.431, 1.376e-3
0.430, 1.401e-3
0.429, 1.427e-3
0.428, 1.454e-3
0.427, 1.479e-3
0.426, 1.506e-3
0.425, 1.532e-3
0.424, 1.559e-3
0.423, 1.584e-3
0.422, 1.609e-3
0.421, 1.634e-3
0.420, 1.659e-3
0.419, 1.684e-3
0.418, 1.710e-3
0.417, 1.734e-3
0.416, 1.759e-3
0.415, 1.783e-3
0.414, 1.807e-3
0.413, 1.830e-3
0.412, 1.855e-3
0.411, 1.877e-3
0.410, 1.904e-3
0.409, 1.931e-3
0.408, 1.955e-3
0.407, 1.979e-3
0.406, 2.002e-3
0.405, 2.025e-3
0.404, 2.048e-3
0.403, 2.071e-3
0.402, 2.094e-3
0.401, 2.117e-3
0.400, 2.141e-3
0.399, 2.163e-3
0.398, 2.186e-3
0.397, 2.209e-3
0.396, 2.233e-3
0.395, 2.255e-3
0.394, 2.278e-3
0.393, 2.299e-3
0.392, 2.320e-3
0.391, 2.342e-3
0.390, 2.364e-3
0.389, 2.386e-3
0.388, 2.408e-3
0.387, 2.429e-3
0.386, 2.452e-3
0.385, 2.474e-3
0.384, 2.497e-3
0.383, 2.520e-3
0.382, 2.542e-3
0.381, 2.564e-3
0.380, 2.586e-3
0.379, 2.608e-3
0.378, 2.631e-3
0.377, 2.653e-3
0.376, 2.675e-3
0.375, 2.698e-3
0.374, 2.720e-3
0.373, 2.742e-3
0.372, 2.765e-3
0.371, 2.787e-3
0.370, 2.810e-3
0.369, 2.831e-3
0.368, 2.853e-3
0.367, 2.875e-3
0.366, 2.897e-3
0.365, 2.920e-3
0.364, 2.944e-3
0.363, 2.965e-3
0.362, 2.989e-3
0.361, 3.012e-3
0.360, 3.034e-3
0.359, 3.056e-3
0.358, 3.079e-3
0.357, 3.101e-3
0.356, 3.124e-3
0.355, 3.145e-3
0.354, 3.169e-3
0.353, 3.191e-3
0.352, 3.214e-3
0.351, 3.236e-3
0.350, 3.257e-3
0.349, 3.279e-3
0.348, 3.301e-3
0.347, 3.322e-3
0.346, 3.344e-3
0.345, 3.366e-3
0.344, 3.389e-3
0.343, 3.412e-3
0.342, 3.435e-3
0.341, 3.458e-3
0.340, 3.480e-3
0.339, 3.501e-3
0.338, 3.523e-3
0.337, 3.545e-3
0.336, 3.565e-3
0.335, 3.587e-3
0.334, 3.609e-3
0.333, 3.631e-3
0.332, 3.654e-3
0.331, 3.676e-3
0.330, 3.698e-3
0.329, 3.720e-3
0.328, 3.742e-3
0.327, 3.763e-3
0.326, 3.785e-3
0.325, 3.806e-3
0.324, 3.828e-3
0.323, 3.851e-3
0.322, 3.873e-3
0.321, 3.895e-3
0.320, 3.918e-3
0.319, 3.941e-3
0.318, 3.962e-3
0.317, 3.983e-3
0.316, 4.004e-3
0.315, 4.025e-3
0.314, 4.048e-3
0.313, 4.070e-3
0.312, 4.092e-3
0.311, 4.114e-3
0.310, 4.135e-3
0.309, 4.157e-3
0.308, 4.180e-3
0.307, 4.204e-3
0.306, 4.228e-3
0.305, 4.250e-3
0.304, 4.272e-3
0.303, 4.294e-3
0.302, 4.314e-3
0.301, 4.336e-3
0.300, 4.357e-3
0.299, 4.377e-3
0.298, 4.399e-3
0.297, 4.420e-3
0.296, 4.442e-3
0.295, 4.464e-3
0.294, 4.485e-3
0.293, 4.506e-3
0.292, 4.528e-3
0.291, 4.549e-3
0.290, 4.571e-3
0.289, 4.592e-3
0.288, 4.616e-3
0.287, 4.638e-3
0.286, 4.659e-3
0.285, 4.680e-3
0.284, 4.701e-3
0.283, 4.722e-3
0.282, 4.744e-3
0.281, 4.765e-3
0.280, 4.785e-3
0.279, 4.805e-3
0.278, 4.825e-3
0.277, 4.846e-3
0.276, 4.867e-3
0.275, 4.889e-3
0.274, 4.910e-3
0.273, 4.932e-3
0.272, 4.954e-3
0.271, 4.975e-3
0.270, 4.995e-3
0.269, 5.016e-3
0.268, 5.037e-3
0.267, 5.057e-3
0.266, 5.077e-3
0.265, 5.099e-3
0.264, 5.119e-3
0.263, 5.140e-3
0.262, 5.161e-3
0.261, 5.181e-3
0.260, 5.201e-3
0.259, 5.220e-3
0.258, 5.240e-3
0.257, 5.260e-3
0.256, 5.281e-3
0.255, 5.303e-3
0.254, 5.323e-3
0.253, 5.345e-3
0.252, 5.366e-3
0.251, 5.386e-3
0.250, 5.407e-3
0.249, 5.429e-3
0.248, 5.448e-3
0.247, 5.468e-3
0.246, 5.487e-3
0.245, 5.507e-3
0.244, 5.527e-3
0.243, 5.546e-3
0.242, 5.567e-3
0.241, 5.587e-3
0.240, 5.606e-3
0.239, 5.627e-3
0.238, 5.647e-3
0.237, 5.667e-3
0.236, 5.686e-3
0.235, 5.704e-3
0.234, 5.722e-3
0.233, 5.740e-3
0.232, 5.759e-3
0.231, 5.779e-3
0.230, 5.799e-3
0.229, 5.820e-3
0.228, 5.839e-3
0.227, 5.858e-3
0.226, 5.877e-3
0.225, 5.896e-3
0.224, 5.916e-3
0.223, 5.935e-3
0.222, 5.952e-3
0.221, 5.971e-3
0.220, 5.990e-3
0.219, 6.008e-3
0.218, 6.027e-3
0.217, 6.046e-3
0.216, 6.064e-3
0.215, 6.083e-3
0.214, 6.102e-3
0.213, 6.121e-3
0.212, 6.139e-3
0.211, 6.157e-3
0.210, 6.175e-3
0.209, 6.194e-3
0.208, 6.211e-3
0.207, 6.230e-3
0.206, 6.247e-3
0.205, 6.266e-3
0.204, 6.283e-3
0.203, 6.300e-3
0.202, 6.317e-3
0.201, 6.334e-3
0.200, 6.350e-3
0.199, 6.369e-3
0.198, 6.387e-3
0.197, 6.406e-3
0.196, 6.424e-3
0.195, 6.441e-3
0.194, 6.459e-3
0.193, 6.476e-3
0.192, 6.492e-3
0.191, 6.511e-3
0.190, 6.527e-3
0.189, 6.544e-3
0.188, 6.562e-3
0.187, 6.579e-3
0.186, 6.598e-3
0.185, 6.616e-3
0.184, 6.633e-3
0.183, 6.651e-3
0.182, 6.667e-3
0.181, 6.684e-3
0.180, 6.701e-3
0.179, 6.718e-3
0.178, 6.736e-3
0.177, 6.753e-3
0.176, 6.769e-3
0.175, 6.787e-3
0.174, 6.804e-3
0.173, 6.822e-3
0.172, 6.841e-3
0.171, 6.859e-3
0.170, 6.876e-3
0.169, 6.894e-3
0.168, 6.910e-3
0.167, 6.927e-3
0.166, 6.943e-3
0.165, 6.960e-3
0.164, 6.977e-3
0.163, 6.992e-3
0.162, 7.011e-3
0.161, 7.028e-3
0.160, 7.046e-3
0.159, 7.064e-3
0.158, 7.080e-3
0.157, 7.097e-3
0.156, 7.115e-3
0.155, 7.132e-3
0.154, 7.150e-3
0.153, 7.167e-3
0.152, 7.183e-3
0.151, 7.200e-3
0.150, 7.216e-3
0.149, 7.234e-3
0.148, 7.251e-3
0.147, 7.269e-3
0.146, 7.286e-3
0.145, 7.304e-3
0.144, 7.321e-3
0.143, 7.339e-3
0.142, 7.355e-3
0.141, 7.373e-3
0.140, 7.390e-3
0.139, 7.406e-3
0.138, 7.423e-3
0.137, 7.439e-3
0.136, 7.455e-3
0.135, 7.474e-3
0.134, 7.490e-3
0.133, 7.507e-3
0.132, 7.524e-3
0.131, 7.540e-3
0.130, 7.557e-3
0.129, 7.575e-3
0.128, 7.591e-3
0.127, 7.609e-3
0.126, 7.624e-3
0.125, 7.642e-3
0.124, 7.658e-3
0.123, 7.674e-3
0.122, 7.692e-3
0.121, 7.709e-3
0.120, 7.726e-3
0.119, 7.742e-3
0.118, 7.758e-3
0.117, 7.775e-3
0.116, 7.791e-3
0.115, 7.807e-3
0.114, 7.824e-3
0.113, 7.840e-3
0.112, 7.855e-3
0.111, 7.872e-3
0.110, 7.887e-3
0.109, 7.904e-3
0.108, 7.920e-3
0.107, 7.936e-3
0.106, 7.953e-3
0.105, 7.970e-3
0.104, 7.986e-3
0.103, 8.003e-3
0.102, 8.022e-3
0.101, 8.038e-3
0.100, 8.054e-3
0.099, 8.070e-3
0.098, 8.086e-3
0.097, 8.101e-3
0.096, 8.117e-3
0.095, 8.133e-3
0.094, 8.148e-3
0.093, 8.165e-3
0.092, 8.180e-3
0.091, 8.196e-3
0.090, 8.212e-3
0.089, 8.228e-3
0.088, 8.243e-3
0.087, 8.261e-3
0.086, 8.275e-3
0.085, 8.291e-3
0.084, 8.308e-3
0.083, 8.324e-3
0.082, 8.339e-3
0.081, 8.356e-3
0.080, 8.370e-3
0.079, 8.387e-3
0.078, 8.402e-3
0.077, 8.418e-3
0.076, 8.434e-3
0.075, 8.450e-3
0.074, 8.465e-3
0.073, 8.480e-3
0.072, 8.495e-3
0.071, 8.512e-3
0.070, 8.528e-3
0.069, 8.544e-3
0.068, 8.559e-3
0.067, 8.575e-3
0.066, 8.590e-3
0.065, 8.605e-3
0.064, 8.620e-3
0.063, 8.636e-3
0.062, 8.649e-3
0.061, 8.665e-3
0.060, 8.679e-3
0.059, 8.694e-3
0.058, 8.710e-3
0.057, 8.726e-3
0.056, 8.740e-3
0.055, 8.756e-3
0.054, 8.771e-3
0.053, 8.787e-3
0.052, 8.802e-3
0.051, 8.818e-3
0.050, 8.833e-3
0.049, 8.849e-3
0.048, 8.863e-3
0.047, 8.878e-3
0.046, 8.891e-3
0.045, 8.906e-3
0.044, 8.921e-3
0.043, 8.936e-3
0.042, 8.950e-3
0.041, 8.966e-3
0.040, 8.980e-3
0.039, 8.996e-3
0.038, 9.009e-3
0.037, 9.025e-3
0.036, 9.039e-3
0.035, 9.054e-3
0.034, 9.069e-3
0.033, 9.083e-3
0.032, 9.097e-3
0.031, 9.111e-3
0.030, 9.124e-3
0.029, 9.138e-3
0.028, 9.152e-3
0.027, 9.166e-3
0.026, 9.180e-3
0.025, 9.195e-3
0.024, 9.209e-3
0.023, 9.225e-3
0.022, 9.238e-3
0.021, 9.254e-3
0.020, 9.268e-3
0.019, 9.283e-3
0.018, 9.297e-3
0.017, 9.311e-3
0.016, 9.324e-3
0.015, 9.339e-3
0.014, 9.352e-3
0.013, 9.367e-3
0.012, 9.380e-3
0.011, 9.394e-3
0.010, 9.408e-3
0.009, 9.421e-3
0.008, 9.435e-3
0.007, 9.450e-3
0.006, 9.463e-3
0.005, 9.477e-3
0.004, 9.491e-3
0.003, 9.504e-3
0.002, 9.518e-3
0.001, 9.532e-3
0.000, 9.552e-3
-0.001, 9.567e-3
-0.002, 9.579e-3
-0.003, 9.593e-3
-0.004, 9.606e-3
-0.005, 9.619e-3
-0.006, 9.632e-3
-0.007, 9.647e-3
-0.008, 9.659e-3
-0.009, 9.673e-3
-0.010, 9.686e-3
-0.011, 9.699e-3
-0.012, 9.712e-3
-0.013, 9.725e-3
-0.014, 9.739e-3
-0.015, 9.751e-3
-0.016, 9.764e-3
-0.017, 9.777e-3
-0.018, 9.790e-3
-0.019, 9.803e-3
-0.020, 9.817e-3
-0.021, 9.830e-3
-0.022, 9.842e-3
-0.023, 9.856e-3
-0.024, 9.868e-3
-0.025, 9.881e-3
-0.026, 9.894e-3
-0.027, 9.908e-3
-0.028, 9.921e-3
-0.029, 9.933e-3
-0.030, 9.946e-3
-0.031, 9.959e-3
-0.032, 9.972e-3
-0.033, 9.986e-3
-0.034, 9.997e-3
-0.035, 1.001e-2
-0.036, 1.002e-2
-0.037, 1.003e-2
-0.038, 1.005e-2
-0.039, 1.006e-2
-0.040, 1.007e-2
-0.041, 1.009e-2
-0.042, 1.010e-2
-0.043, 1.011e-2
-0.044, 1.012e-2
-0.045, 1.013e-2
-0.046, 1.015e-2
-0.047, 1.016e-2
-0.048, 1.017e-2
-0.049, 1.018e-2
-0.050, 1.020e-2
-0.051, 1.021e-2
-0.052, 1.022e-2
-0.053, 1.023e-2
-0.054, 1.024e-2
-0.055, 1.026e-2
-0.056, 1.027e-2
-0.057, 1.028e-2
-0.058, 1.029e-2
-0.059, 1.030e-2
-0.060, 1.032e-2
-0.061, 1.033e-2
-0.062, 1.034e-2
-0.063, 1.035e-2
-0.064, 1.036e-2
-0.065, 1.037e-2
-0.066, 1.038e-2
-0.067, 1.040e-2
-0.068, 1.041e-2
-0.069, 1.042e-2
-0.070, 1.043e-2
-0.071, 1.044e-2
-0.072, 1.045e-2
-0.073, 1.047e-2
-0.074, 1.048e-2
-0.075, 1.049e-2
-0.076, 1.050e-2
-0.077, 1.051e-2
-0.078, 1.053e-2
-0.079, 1.054e-2
-0.080, 1.055e-2
-0.081, 1.056e-2
-0.082, 1.057e-2
-0.083, 1.058e-2
-0.084, 1.059e-2
-0.085, 1.060e-2
-0.086, 1.062e-2
-0.087, 1.063e-2
-0.088, 1.064e-2
-0.089, 1.065e-2
-0.090, 1.066e-2
-0.091, 1.067e-2
-0.092, 1.068e-2
-0.093, 1.069e-2
-0.094, 1.070e-2
-0.095, 1.072e-2
-0.096, 1.073e-2
-0.097, 1.074e-2
-0.098, 1.075e-2
-0.099, 1.076e-2
-0.100, 1.077e-2
-0.101, 1.078e-2
-0.102, 1.079e-2
-0.103, 1.081e-2
-0.104, 1.082e-2
-0.105, 1.083e-2
-0.106, 1.084e-2
-0.107, 1.085e-2
-0.108, 1.086e-2
-0.109, 1.087e-2
-0.110, 1.088e-2
-0.111, 1.089e-2
-0.112, 1.090e-2
-0.113, 1.091e-2
-0.114, 1.092e-2
-0.115, 1.093e-2
-0.116, 1.094e-2
-0.117, 1.095e-2
-0.118, 1.096e-2
-0.119, 1.097e-2
-0.120, 1.098e-2
-0.121, 1.099e-2
-0.122, 1.100e-2
-0.123, 1.101e-2
-0.124, 1.102e-2
-0.125, 1.103e-2
-0.126, 1.104e-2
-0.127, 1.105e-2
-0.128, 1.106e-2
-0.129, 1.107e-2
-0.130, 1.108e-2
-0.131, 1.109e-2
-0.132, 1.110e-2
-0.133, 1.111e-2
-0.134, 1.112e-2
-0.135, 1.113e-2
-0.136, 1.114e-2
-0.137, 1.115e-2
-0.138, 1.116e-2
-0.139, 1.117e-2
-0.140, 1.118e-2
-0.141, 1.119e-2
-0.142, 1.120e-2
-0.143, 1.121e-2
-0.144, 1.122e-2
-0.145, 1.123e-2
-0.146, 1.124e-2
-0.147, 1.125e-2
-0.148, 1.126e-2
-0.149, 1.127e-2
-0.150, 1.127e-2
-0.151, 1.128e-2
-0.152, 1.129e-2
-0.153, 1.130e-2
-0.154, 1.131e-2
-0.155, 1.132e-2
-0.156, 1.133e-2
-0.157, 1.134e-2
-0.158, 1.135e-2
-0.159, 1.135e-2
-0.160, 1.136e-2
-0.161, 1.137e-2
-0.162, 1.138e-2
-0.163, 1.139e-2
-0.164, 1.140e-2
-0.165, 1.141e-2
-0.166, 1.142e-2
-0.167, 1.143e-2
-0.168, 1.143e-2
-0.169, 1.144e-2
-0.170, 1.145e-2
-0.171, 1.146e-2
-0.172, 1.147e-2
-0.173, 1.148e-2
-0.174, 1.149e-2
-0.175, 1.150e-2
-0.176, 1.150e-2
-0.177, 1.151e-2
-0.178, 1.152e-2
-0.179, 1.153e-2
-0.180, 1.154e-2
-0.181, 1.155e-2
-0.182, 1.155e-2
-0.183, 1.156e-2
-0.184, 1.157e-2
-0.185, 1.158e-2
-0.186, 1.159e-2
-0.187, 1.159e-2
-0.188, 1.160e-2
-0.189, 1.161e-2
-0.190, 1.162e-2
-0.191, 1.163e-2
-0.192, 1.163e-2
-0.193, 1.164e-2
-0.194, 1.165e-2
-0.195, 1.166e-2
-0.196, 1.167e-2
-0.197, 1.167e-2
-0.198, 1.168e-2
-0.199, 1.169e-2
-0.200, 1.170e-2
-0.201, 1.171e-2
-0.202, 1.171e-2
-0.203, 1.172e-2
-0.204, 1.173e-2
-0.205, 1.173e-2
-0.206, 1.174e-2
-0.207, 1.175e-2
-0.208, 1.176e-2
-0.209, 1.176e-2
-0.210, 1.177e-2
-0.211, 1.178e-2
-0.212, 1.179e-2
-0.213, 1.180e-2
-0.214, 1.180e-2
-0.215, 1.181e-2
-0.216, 1.182e-2
-0.217, 1.182e-2
-0.218, 1.183e-2
-0.219, 1.184e-2
-0.220, 1.185e-2
-0.221, 1.185e-2
-0.222, 1.186e-2
-0.223, 1.187e-2
-0.224, 1.187e-2
-0.225, 1.188e-2
-0.226, 1.189e-2
-0.227, 1.190e-2
-0.228, 1.190e-2
-0.229, 1.191e-2
-0.230, 1.192e-2
-0.231, 1.192e-2
-0.232, 1.193e-2
-0.233, 1.194e-2
-0.234, 1.194e-2
-0.235, 1.195e-2
-0.236, 1.196e-2
-0.237, 1.196e-2
-0.238, 1.197e-2
-0.239, 1.198e-2
-0.240, 1.198e-2
-0.241, 1.199e-2
-0.242, 1.200e-2
-0.243, 1.200e-2
-0.244, 1.201e-2
-0.245, 1.202e-2
-0.246, 1.202e-2
-0.247, 1.203e-2
-0.248, 1.204e-2
-0.249, 1.204e-2
-0.250, 1.205e-2
-0.251, 1.205e-2
-0.252, 1.206e-2
-0.253, 1.206e-2
-0.254, 1.207e-2
-0.255, 1.208e-2
-0.256, 1.208e-2
-0.257, 1.209e-2
-0.258, 1.209e-2
-0.259, 1.210e-2
-0.260, 1.210e-2
-0.261, 1.211e-2
-0.262, 1.211e-2
-0.263, 1.212e-2
-0.264, 1.212e-2
-0.265, 1.213e-2
-0.266, 1.213e-2
-0.267, 1.214e-2
-0.268, 1.214e-2
-0.269, 1.215e-2
-0.270, 1.215e-2
-0.271, 1.216e-2
-0.272, 1.216e-2
-0.273, 1.217e-2
-0.274, 1.218e-2
-0.275, 1.218e-2
-0.276, 1.219e-2
-0.277, 1.219e-2
-0.278, 1.220e-2
-0.279, 1.221e-2
-0.280, 1.221e-2
-0.281, 1.222e-2
-0.282, 1.223e-2
-0.283, 1.223e-2
-0.284, 1.224e-2
-0.285, 1.224e-2
-0.286, 1.225e-2
-0.287, 1.225e-2
-0.288, 1.226e-2
-0.289, 1.227e-2
-0.290, 1.227e-2
-0.291, 1.228e-2
-0.292, 1.228e-2
-0.293, 1.229e-2
-0.294, 1.229e-2
-0.295, 1.230e-2
-0.296, 1.230e-2
-0.297, 1.231e-2
-0.298, 1.232e-2
-0.299, 1.232e-2
-0.300, 1.233e-2
-0.301, 1.233e-2
-0.302, 1.234e-2
-0.303, 1.234e-2
-0.304, 1.235e-2
-0.305, 1.235e-2
-0.306, 1.236e-2
-0.307, 1.237e-2
-0.308, 1.237e-2
-0.309, 1.238e-2
-0.310, 1.238e-2
-0.311, 1.239e-2
-0.312, 1.239e-2
-0.313, 1.240e-2
-0.314, 1.240e-2
-0.315, 1.241e-2
-0.316, 1.242e-2
-0.317, 1.242e-2
-0.318, 1.243e-2
-0.319, 1.243e-2
-0.320, 1.244e-2
-0.321, 1.244e-2
-0.322, 1.245e-2
-0.323, 1.245e-2
-0.324, 1.246e-2
-0.325, 1.246e-2
-0.326, 1.247e-2
-0.327, 1.248e-2
-0.328, 1.248e-2
-0.329, 1.249e-2
-0.330, 1.249e-2
-0.331, 1.250e-2
-0.332, 1.250e-2
-0.333, 1.251e-2
-0.334, 1.252e-2
-0.335, 1.252e-2
-0.336, 1.253e-2
-0.337, 1.253e-2
-0.338, 1.254e-2
-0.339, 1.255e-2
-0.340, 1.255e-2
-0.341, 1.256e-2
-0.342, 1.256e-2
-0.343, 1.257e-2
-0.344, 1.258e-2
-0.345, 1.258e-2
-0.346, 1.259e-2
-0.347, 1.259e-2
-0.348, 1.260e-2
-0.349, 1.260e-2
-0.350, 1.261e-2
-0.351, 1.261e-2
-0.352, 1.262e-2
-0.353, 1.262e-2
-0.354, 1.263e-2
-0.355, 1.264e-2
-0.356, 1.264e-2
-0.357, 1.265e-2
-0.358, 1.265e-2
-0.359, 1.266e-2
-0.360, 1.266e-2
-0.361, 1.267e-2
-0.362, 1.268e-2
-0.363, 1.268e-2
-0.364, 1.269e-2
-0.365, 1.269e-2
-0.366, 1.270e-2
-0.367, 1.270e-2
-0.368, 1.271e-2
-0.369, 1.272e-2
-0.370, 1.272e-2
-0.371, 1.273e-2
-0.372, 1.273e-2
-0.373, 1.274e-2
-0.374, 1.275e-2
-0.375, 1.275e-2
-0.376, 1.276e-2
-0.377, 1.276e-2
-0.378, 1.277e-2
-0.379, 1.277e-2
-0.380, 1.278e-2
-0.381, 1.278e-2
-0.382, 1.279e-2
-0.383, 1.279e-2
-0.384, 1.280e-2
-0.385, 1.281e-2
-0.386, 1.281e-2
-0.387, 1.282e-2
-0.388, 1.282e-2
-0.389, 1.283e-2
-0.390, 1.283e-2
-0.391, 1.284e-2
-0.392, 1.284e-2
-0.393, 1.285e-2
-0.394, 1.285e-2
-0.395, 1.286e-2
-0.396, 1.287e-2
-0.397, 1.287e-2
-0.398, 1.288e-2
-0.399, 1.288e-2
-0.400, 1.289e-2
-0.401, 1.290e-2
-0.402, 1.290e-2
-0.403, 1.291e-2
-0.404, 1.291e-2
-0.405, 1.292e-2
-0.406, 1.292e-2
-0.407, 1.293e-2
-0.408, 1.293e-2
-0.409, 1.294e-2
-0.410, 1.295e-2
-0.411, 1.296e-2
-0.412, 1.296e-2
-0.413, 1.297e-2
-0.414, 1.297e-2
-0.415, 1.298e-2
-0.416, 1.299e-2
-0.417, 1.299e-2
-0.418, 1.300e-2
-0.419, 1.300e-2
-0.420, 1.301e-2
-0.421, 1.302e-2
-0.422, 1.302e-2
-0.423, 1.303e-2
-0.424, 1.303e-2
-0.425, 1.304e-2
-0.426, 1.305e-2
-0.427, 1.305e-2
-0.428, 1.306e-2
-0.429, 1.307e-2
-0.430, 1.307e-2
-0.431, 1.308e-2
-0.432, 1.308e-2
-0.433, 1.309e-2
-0.434, 1.310e-2
-0.435, 1.310e-2
-0.436, 1.311e-2
-0.437, 1.311e-2
-0.438, 1.312e-2
-0.439, 1.313e-2
-0.440, 1.313e-2
-0.441, 1.314e-2
-0.442, 1.314e-2
-0.443, 1.315e-2
-0.444, 1.316e-2
-0.445, 1.317e-2
-0.446, 1.317e-2
-0.447, 1.318e-2
-0.448, 1.319e-2
-0.449, 1.320e-2
-0.450, 1.320e-2
-0.451, 1.321e-2
-0.452, 1.322e-2
-0.453, 1.322e-2
-0.454, 1.323e-2
-0.455, 1.323e-2
-0.456, 1.324e-2
-0.457, 1.324e-2
-0.458, 1.326e-2
-0.459, 1.327e-2
-0.460, 1.327e-2
-0.461, 1.328e-2
-0.462, 1.329e-2
-0.463, 1.329e-2
-0.464, 1.330e-2
-0.465, 1.331e-2
-0.466, 1.332e-2
-0.467, 1.332e-2
-0.468, 1.333e-2
-0.469, 1.334e-2
-0.470, 1.334e-2
-0.471, 1.335e-2
-0.472, 1.335e-2
-0.473, 1.336e-2
-0.474, 1.336e-2
-0.475, 1.337e-2
-0.476, 1.337e-2
-0.477, 1.339e-2
-0.478, 1.341e-2
-0.479, 1.341e-2
-0.480, 1.342e-2
-0.481, 1.342e-2
-0.482, 1.343e-2
-0.483, 1.344e-2
-0.484, 1.344e-2
-0.485, 1.345e-2
-0.486, 1.345e-2
-0.487, 1.346e-2
-0.488, 1.346e-2
-0.489, 1.348e-2
-0.490, 1.349e-2
-0.491, 1.351e-2
-0.492, 1.352e-2
-0.493, 1.352e-2
-0.494, 1.353e-2
-0.495, 1.353e-2
-0.496, 1.354e-2
-0.497, 1.355e-2
-0.498, 1.355e-2
-0.499, 1.356e-2
-0.500, 1.356e-2
-0.501, 1.358e-2
-0.502, 1.359e-2
-0.503, 1.360e-2
-0.504, 1.360e-2
-0.505, 1.361e-2
-0.506, 1.361e-2
-0.507, 1.362e-2
-0.508, 1.362e-2
-0.509, 1.363e-2
-0.510, 1.363e-2
-0.511, 1.365e-2
-0.512, 1.366e-2
-0.513, 1.367e-2
-0.514, 1.368e-2
-0.515, 1.369e-2
-0.516, 1.370e-2
-0.517, 1.370e-2
-0.518, 1.371e-2
-0.519, 1.373e-2
-0.520, 1.374e-2
-0.521, 1.374e-2
-0.522, 1.375e-2
-0.523, 1.375e-2
-0.524, 1.376e-2
-0.525, 1.377e-2
-0.526, 1.378e-2
-0.527, 1.378e-2
-0.528, 1.380e-2
-0.529, 1.381e-2
-0.530, 1.381e-2
-0.531, 1.382e-2
-0.532, 1.383e-2
-0.533, 1.383e-2
-0.534, 1.384e-2
-0.535, 1.384e-2
-0.536, 1.385e-2
-0.537, 1.388e-2
-0.538, 1.388e-2
-0.539, 1.389e-2
-0.540, 1.389e-2
-0.541, 1.390e-2
-0.542, 1.392e-2
-0.543, 1.392e-2
-0.544, 1.394e-2
-0.545, 1.395e-2
-0.546, 1.396e-2
-0.547, 1.396e-2
-0.548, 1.396e-2
-0.549, 1.397e-2
-0.550, 1.398e-2
-0.551, 1.400e-2
-0.552, 1.401e-2
-0.553, 1.402e-2
-0.554, 1.402e-2
-0.555, 1.402e-2
-0.556, 1.403e-2
-0.557, 1.404e-2
-0.558, 1.406e-2
-0.559, 1.406e-2
-0.560, 1.406e-2
-0.561, 1.407e-2
-0.562, 1.408e-2
-0.563, 1.408e-2
-0.564, 1.411e-2
-0.565, 1.412e-2
-0.566, 1.412e-2
-0.567, 1.413e-2
-0.568, 1.413e-2
-0.569, 1.414e-2
-0.570, 1.417e-2
-0.571, 1.417e-2
-0.572, 1.418e-2
-0.573, 1.418e-2
-0.574, 1.418e-2
-0.575, 1.420e-2
-0.576, 1.421e-2
-0.577, 1.421e-2
-0.578, 1.422e-2
-0.579, 1.423e-2
-0.580, 1.424e-2
-0.581, 1.427e-2
-0.582, 1.428e-2
-0.583, 1.428e-2
-0.584, 1.428e-2
-0.585, 1.428e-2
-0.586, 1.429e-2
-0.587, 1.431e-2
-0.588, 1.431e-2
-0.589, 1.432e-2
-0.590, 1.432e-2
-0.591, 1.434e-2
-0.592, 1.436e-2
-0.593, 1.436e-2
-0.594, 1.435e-2
-0.595, 1.436e-2
-0.596, 1.436e-2
-0.597, 1.438e-2
-0.598, 1.439e-2
-0.599, 1.441e-2
-0.600, 1.442e-2
-0.601, 1.444e-2
-0.602, 1.448e-2
-0.603, 1.450e-2
-0.604, 1.452e-2
-0.605, 1.453e-2
-0.606, 1.456e-2
-0.607, 1.460e-2
-0.608, 1.462e-2
-0.609, 1.463e-2
-0.610, 1.465e-2
-0.611, 1.470e-2
-0.612, 1.475e-2
-0.613, 1.478e-2
-0.614, 1.482e-2
-0.615, 1.483e-2
-0.616, 1.486e-2
-0.617, 1.489e-2
-0.618, 1.493e-2
-0.619, 1.494e-2
-0.620, 1.494e-2
-0.621, 1.498e-2
-0.622, 1.498e-2
-0.623, 1.498e-2
-0.624, 1.497e-2
-0.625, 1.498e-2
-0.626, 1.500e-2
-0.627, 1.501e-2
-0.628, 1.502e-2
-0.629, 1.502e-2
-0.630, 1.504e-2
-0.631, 1.504e-2
-0.632, 1.505e-2
-0.633, 1.506e-2
-0.634, 1.509e-2
-0.635, 1.512e-2
-0.636, 1.511e-2
-0.637, 1.510e-2
-0.638, 1.511e-2
-0.639, 1.511e-2
-0.640, 1.512e-2
-0.641, 1.512e-2
-0.642, 1.514e-2
-0.643, 1.515e-2
-0.644, 1.515e-2
-0.645, 1.514e-2
-0.646, 1.516e-2
-0.647, 1.517e-2
-0.648, 1.517e-2
-0.649, 1.518e-2
-0.650, 1.519e-2
-0.651, 1.520e-2
-0.652, 1.521e-2
-0.653, 1.521e-2
-0.654, 1.522e-2
-0.655, 1.525e-2
-0.656, 1.524e-2
-0.657, 1.525e-2
-0.658, 1.526e-2
-0.659, 1.528e-2
-0.660, 1.528e-2
-0.661, 1.527e-2
-0.662, 1.528e-2
-0.663, 1.532e-2
-0.664, 1.533e-2
-0.665, 1.534e-2
-0.666, 1.536e-2
-0.667, 1.535e-2
-0.668, 1.537e-2
-0.669, 1.538e-2
-0.670, 1.542e-2
-0.671, 1.541e-2
-0.672, 1.541e-2
-0.673, 1.544e-2
-0.674, 1.544e-2
-0.675, 1.547e-2
-0.676, 1.548e-2
-0.677, 1.551e-2
-0.678, 1.551e-2
-0.679, 1.551e-2
-0.680, 1.554e-2
-0.681, 1.555e-2
-0.682, 1.555e-2
-0.683, 1.555e-2
-0.684, 1.558e-2
-0.685, 1.557e-2
-0.686, 1.557e-2
-0.687, 1.559e-2
-0.688, 1.565e-2
-0.689, 1.565e-2
-0.690, 1.564e-2
-0.691, 1.565e-2
-0.692, 1.566e-2
-0.693, 1.566e-2
-0.694, 1.566e-2
-0.695, 1.569e-2
-0.696, 1.568e-2
-0.697, 1.570e-2
-0.698, 1.570e-2
-0.699, 1.572e-2
-0.700, 1.575e-2
-0.701, 1.577e-2
-0.702, 1.578e-2
-0.703, 1.579e-2
-0.704, 1.579e-2
-0.705, 1.579e-2
-0.706, 1.582e-2
-0.707, 1.585e-2
-0.708, 1.587e-2
-0.709, 1.590e-2
-0.710, 1.590e-2
-0.711, 1.589e-2
-0.712, 1.590e-2
-0.713, 1.594e-2
-0.714, 1.597e-2
-0.715, 1.597e-2
-0.716, 1.598e-2
-0.717, 1.599e-2
-0.718, 1.598e-2
-0.719, 1.601e-2
-0.720, 1.605e-2
-0.721, 1.606e-2
-0.722, 1.606e-2
-0.723, 1.608e-2
-0.724, 1.611e-2
-0.725, 1.610e-2
-0.726, 1.612e-2
-0.727, 1.615e-2
-0.728, 1.616e-2
-0.729, 1.617e-2
-0.730, 1.618e-2
-0.731, 1.622e-2
-0.732, 1.621e-2
-0.733, 1.622e-2
-0.734, 1.626e-2
-0.735, 1.628e-2
-0.736, 1.629e-2
-0.737, 1.630e-2
-0.738, 1.631e-2
-0.739, 1.634e-2
-0.740, 1.647e-2
-0.741, 1.650e-2
-0.742, 1.649e-2
-0.743, 1.650e-2
-0.744, 1.654e-2
-0.745, 1.654e-2
-0.746, 1.661e-2
-0.747, 1.666e-2
-0.748, 1.669e-2
-0.749, 1.675e-2
-0.750, 1.681e-2
-0.751, 1.683e-2
-0.752, 1.683e-2
-0.753, 1.685e-2
-0.754, 1.688e-2
-0.755, 1.689e-2
-0.756, 1.691e-2
-0.757, 1.696e-2
-0.758, 1.697e-2
-0.759, 1.699e-2
-0.760, 1.702e-2
-0.761, 1.701e-2
-0.762, 1.702e-2
-0.763, 1.711e-2
-0.764, 1.712e-2
-0.765, 1.716e-2
-0.766, 1.723e-2
-0.767, 1.724e-2
-0.768, 1.726e-2
-0.769, 1.733e-2
-0.770, 1.731e-2
-0.771, 1.732e-2
-0.772, 1.741e-2
-0.773, 1.741e-2
-0.774, 1.742e-2
-0.775, 1.749e-2
-0.776, 1.747e-2
-0.777, 1.746e-2
-0.778, 1.749e-2
-0.779, 1.747e-2
-0.780, 1.748e-2
-0.781, 1.758e-2
-0.782, 1.761e-2
-0.783, 1.765e-2
-0.784, 1.771e-2
-0.785, 1.774e-2
-0.786, 1.774e-2
-0.787, 1.781e-2
-0.788, 1.794e-2
-0.789, 1.799e-2
-0.790, 1.806e-2
-0.791, 1.816e-2
-0.792, 1.822e-2
-0.793, 1.822e-2
-0.794, 1.824e-2
-0.795, 1.824e-2
-0.796, 1.827e-2
-0.797, 1.832e-2
-0.798, 1.833e-2
-0.799, 1.838e-2
