Apr. 28, 2026   12:22:43
Cyclic Voltammetry
File: c:\users\administrator\desktop\2026.4.28\hi 2mol h2so4\0.5\run unsaved.txt
Data Source:  Experiment
Instrument Model:  CHI600E
Header: 
Note: 

Init E (V) = 0
High E (V) = 0.8
Low E (V) = -0.8
Init P/N = N
Scan Rate (V/s) = 0.5
Segment = 3
Sample Interval (V) = 0.001
Quiet Time (sec) = 2
Sensitivity (A/V) = 0.1

Segment 1:

Segment 2:

Segment 3:

Potential/V, Current/A

0.000, -5.762e-3
-0.001, -5.547e-3
-0.002, -5.332e-3
-0.003, -5.117e-3
-0.004, -4.933e-3
-0.005, -4.749e-3
-0.006, -4.565e-3
-0.007, -4.412e-3
-0.008, -4.258e-3
-0.009, -4.074e-3
-0.010, -3.952e-3
-0.011, -3.798e-3
-0.012, -3.645e-3
-0.013, -3.491e-3
-0.014, -3.369e-3
-0.015, -3.215e-3
-0.016, -3.092e-3
-0.017, -2.939e-3
-0.018, -2.816e-3
-0.019, -2.663e-3
-0.020, -2.540e-3
-0.021, -2.417e-3
-0.022, -2.295e-3
-0.023, -2.172e-3
-0.024, -2.049e-3
-0.025, -1.927e-3
-0.026, -1.773e-3
-0.027, -1.650e-3
-0.028, -1.558e-3
-0.029, -1.436e-3
-0.030, -1.313e-3
-0.031, -1.190e-3
-0.032, -1.067e-3
-0.033, -9.754e-4
-0.034, -8.527e-4
-0.035, -7.300e-4
-0.036, -6.379e-4
-0.037, -5.152e-4
-0.038, -3.925e-4
-0.039, -3.004e-4
-0.040, -1.777e-4
-0.041, -8.566e-5
-0.042, 3.706e-5
-0.043, 1.291e-4
-0.044, 2.518e-4
-0.045, 3.439e-4
-0.046, 4.666e-4
-0.047, 5.893e-4
-0.048, 6.814e-4
-0.049, 7.734e-4
-0.050, 8.962e-4
-0.051, 9.882e-4
-0.052, 1.080e-3
-0.053, 1.172e-3
-0.054, 1.295e-3
-0.055, 1.387e-3
-0.056, 1.479e-3
-0.057, 1.571e-3
-0.058, 1.694e-3
-0.059, 1.786e-3
-0.060, 1.909e-3
-0.061, 1.970e-3
-0.062, 2.093e-3
-0.063, 2.185e-3
-0.064, 2.277e-3
-0.065, 2.369e-3
-0.066, 2.461e-3
-0.067, 2.553e-3
-0.068, 2.645e-3
-0.069, 2.737e-3
-0.070, 2.860e-3
-0.071, 2.952e-3
-0.072, 3.013e-3
-0.073, 3.105e-3
-0.074, 3.197e-3
-0.075, 3.320e-3
-0.076, 3.381e-3
-0.077, 3.473e-3
-0.078, 3.565e-3
-0.079, 3.688e-3
-0.080, 3.780e-3
-0.081, 3.872e-3
-0.082, 3.934e-3
-0.083, 4.026e-3
-0.084, 4.118e-3
-0.085, 4.210e-3
-0.086, 4.302e-3
-0.087, 4.394e-3
-0.088, 4.486e-3
-0.089, 4.578e-3
-0.090, 4.670e-3
-0.091, 4.731e-3
-0.092, 4.823e-3
-0.093, 4.915e-3
-0.094, 5.008e-3
-0.095, 5.069e-3
-0.096, 5.192e-3
-0.097, 5.284e-3
-0.098, 5.345e-3
-0.099, 5.437e-3
-0.100, 5.529e-3
-0.101, 5.621e-3
-0.102, 5.683e-3
-0.103, 5.775e-3
-0.104, 5.867e-3
-0.105, 5.959e-3
-0.106, 6.020e-3
-0.107, 6.112e-3
-0.108, 6.204e-3
-0.109, 6.296e-3
-0.110, 6.388e-3
-0.111, 6.450e-3
-0.112, 6.511e-3
-0.113, 6.603e-3
-0.114, 6.695e-3
-0.115, 6.787e-3
-0.116, 6.848e-3
-0.117, 6.940e-3
-0.118, 7.002e-3
-0.119, 7.094e-3
-0.120, 7.186e-3
-0.121, 7.247e-3
-0.122, 7.339e-3
-0.123, 7.401e-3
-0.124, 7.493e-3
-0.125, 7.585e-3
-0.126, 7.646e-3
-0.127, 7.738e-3
-0.128, 7.800e-3
-0.129, 7.892e-3
-0.130, 7.984e-3
-0.131, 8.045e-3
-0.132, 8.106e-3
-0.133, 8.198e-3
-0.134, 8.260e-3
-0.135, 8.352e-3
-0.136, 8.444e-3
-0.137, 8.505e-3
-0.138, 8.567e-3
-0.139, 8.659e-3
-0.140, 8.751e-3
-0.141, 8.812e-3
-0.142, 8.873e-3
-0.143, 8.965e-3
-0.144, 9.058e-3
-0.145, 9.119e-3
-0.146, 9.211e-3
-0.147, 9.303e-3
-0.148, 9.364e-3
-0.149, 9.456e-3
-0.150, 9.518e-3
-0.151, 9.610e-3
-0.152, 9.671e-3
-0.153, 9.763e-3
-0.154, 9.825e-3
-0.155, 9.917e-3
-0.156, 9.978e-3
-0.157, 1.007e-2
-0.158, 1.013e-2
-0.159, 1.022e-2
-0.160, 1.028e-2
-0.161, 1.035e-2
-0.162, 1.041e-2
-0.163, 1.050e-2
-0.164, 1.056e-2
-0.165, 1.065e-2
-0.166, 1.071e-2
-0.167, 1.081e-2
-0.168, 1.087e-2
-0.169, 1.093e-2
-0.170, 1.102e-2
-0.171, 1.108e-2
-0.172, 1.114e-2
-0.173, 1.121e-2
-0.174, 1.130e-2
-0.175, 1.136e-2
-0.176, 1.142e-2
-0.177, 1.151e-2
-0.178, 1.157e-2
-0.179, 1.167e-2
-0.180, 1.173e-2
-0.181, 1.179e-2
-0.182, 1.185e-2
-0.183, 1.194e-2
-0.184, 1.200e-2
-0.185, 1.206e-2
-0.186, 1.213e-2
-0.187, 1.222e-2
-0.188, 1.228e-2
-0.189, 1.234e-2
-0.190, 1.243e-2
-0.191, 1.249e-2
-0.192, 1.256e-2
-0.193, 1.262e-2
-0.194, 1.271e-2
-0.195, 1.277e-2
-0.196, 1.283e-2
-0.197, 1.292e-2
-0.198, 1.298e-2
-0.199, 1.305e-2
-0.200, 1.311e-2
-0.201, 1.320e-2
-0.202, 1.326e-2
-0.203, 1.332e-2
-0.204, 1.338e-2
-0.205, 1.348e-2
-0.206, 1.354e-2
-0.207, 1.360e-2
-0.208, 1.369e-2
-0.209, 1.375e-2
-0.210, 1.381e-2
-0.211, 1.387e-2
-0.212, 1.397e-2
-0.213, 1.403e-2
-0.214, 1.409e-2
-0.215, 1.418e-2
-0.216, 1.424e-2
-0.217, 1.430e-2
-0.218, 1.437e-2
-0.219, 1.443e-2
-0.220, 1.449e-2
-0.221, 1.458e-2
-0.222, 1.464e-2
-0.223, 1.470e-2
-0.224, 1.476e-2
-0.225, 1.486e-2
-0.226, 1.492e-2
-0.227, 1.498e-2
-0.228, 1.504e-2
-0.229, 1.510e-2
-0.230, 1.519e-2
-0.231, 1.526e-2
-0.232, 1.532e-2
-0.233, 1.538e-2
-0.234, 1.544e-2
-0.235, 1.553e-2
-0.236, 1.559e-2
-0.237, 1.565e-2
-0.238, 1.572e-2
-0.239, 1.581e-2
-0.240, 1.587e-2
-0.241, 1.593e-2
-0.242, 1.599e-2
-0.243, 1.605e-2
-0.244, 1.611e-2
-0.245, 1.621e-2
-0.246, 1.627e-2
-0.247, 1.633e-2
-0.248, 1.639e-2
-0.249, 1.645e-2
-0.250, 1.654e-2
-0.251, 1.661e-2
-0.252, 1.667e-2
-0.253, 1.673e-2
-0.254, 1.679e-2
-0.255, 1.685e-2
-0.256, 1.694e-2
-0.257, 1.700e-2
-0.258, 1.707e-2
-0.259, 1.713e-2
-0.260, 1.719e-2
-0.261, 1.725e-2
-0.262, 1.731e-2
-0.263, 1.740e-2
-0.264, 1.746e-2
-0.265, 1.753e-2
-0.266, 1.759e-2
-0.267, 1.765e-2
-0.268, 1.771e-2
-0.269, 1.777e-2
-0.270, 1.783e-2
-0.271, 1.792e-2
-0.272, 1.799e-2
-0.273, 1.805e-2
-0.274, 1.811e-2
-0.275, 1.817e-2
-0.276, 1.823e-2
-0.277, 1.829e-2
-0.278, 1.835e-2
-0.279, 1.842e-2
-0.280, 1.851e-2
-0.281, 1.857e-2
-0.282, 1.863e-2
-0.283, 1.869e-2
-0.284, 1.875e-2
-0.285, 1.881e-2
-0.286, 1.888e-2
-0.287, 1.894e-2
-0.288, 1.900e-2
-0.289, 1.906e-2
-0.290, 1.915e-2
-0.291, 1.921e-2
-0.292, 1.927e-2
-0.293, 1.934e-2
-0.294, 1.940e-2
-0.295, 1.946e-2
-0.296, 1.952e-2
-0.297, 1.958e-2
-0.298, 1.964e-2
-0.299, 1.973e-2
-0.300, 1.980e-2
-0.301, 1.986e-2
-0.302, 1.992e-2
-0.303, 1.998e-2
-0.304, 2.004e-2
-0.305, 2.010e-2
-0.306, 2.016e-2
-0.307, 2.023e-2
-0.308, 2.029e-2
-0.309, 2.038e-2
-0.310, 2.044e-2
-0.311, 2.050e-2
-0.312, 2.056e-2
-0.313, 2.059e-2
-0.314, 2.069e-2
-0.315, 2.075e-2
-0.316, 2.081e-2
-0.317, 2.087e-2
-0.318, 2.093e-2
-0.319, 2.099e-2
-0.320, 2.105e-2
-0.321, 2.112e-2
-0.322, 2.118e-2
-0.323, 2.124e-2
-0.324, 2.130e-2
-0.325, 2.139e-2
-0.326, 2.145e-2
-0.327, 2.151e-2
-0.328, 2.158e-2
-0.329, 2.164e-2
-0.330, 2.170e-2
-0.331, 2.176e-2
-0.332, 2.182e-2
-0.333, 2.188e-2
-0.334, 2.194e-2
-0.335, 2.201e-2
-0.336, 2.207e-2
-0.337, 2.213e-2
-0.338, 2.219e-2
-0.339, 2.225e-2
-0.340, 2.234e-2
-0.341, 2.240e-2
-0.342, 2.247e-2
-0.343, 2.250e-2
-0.344, 2.256e-2
-0.345, 2.262e-2
-0.346, 2.271e-2
-0.347, 2.277e-2
-0.348, 2.283e-2
-0.349, 2.286e-2
-0.350, 2.296e-2
-0.351, 2.302e-2
-0.352, 2.308e-2
-0.353, 2.314e-2
-0.354, 2.320e-2
-0.355, 2.326e-2
-0.356, 2.332e-2
-0.357, 2.339e-2
-0.358, 2.345e-2
-0.359, 2.351e-2
-0.360, 2.357e-2
-0.361, 2.363e-2
-0.362, 2.369e-2
-0.363, 2.375e-2
-0.364, 2.382e-2
-0.365, 2.391e-2
-0.366, 2.397e-2
-0.367, 2.403e-2
-0.368, 2.406e-2
-0.369, 2.415e-2
-0.370, 2.421e-2
-0.371, 2.428e-2
-0.372, 2.434e-2
-0.373, 2.440e-2
-0.374, 2.446e-2
-0.375, 2.452e-2
-0.376, 2.458e-2
-0.377, 2.464e-2
-0.378, 2.471e-2
-0.379, 2.477e-2
-0.380, 2.483e-2
-0.381, 2.489e-2
-0.382, 2.495e-2
-0.383, 2.501e-2
-0.384, 2.507e-2
-0.385, 2.513e-2
-0.386, 2.523e-2
-0.387, 2.526e-2
-0.388, 2.535e-2
-0.389, 2.541e-2
-0.390, 2.547e-2
-0.391, 2.553e-2
-0.392, 2.559e-2
-0.393, 2.563e-2
-0.394, 2.572e-2
-0.395, 2.578e-2
-0.396, 2.584e-2
-0.397, 2.590e-2
-0.398, 2.596e-2
-0.399, 2.602e-2
-0.400, 2.609e-2
-0.401, 2.615e-2
-0.402, 2.621e-2
-0.403, 2.627e-2
-0.404, 2.630e-2
-0.405, 2.639e-2
-0.406, 2.645e-2
-0.407, 2.652e-2
-0.408, 2.658e-2
-0.409, 2.664e-2
-0.410, 2.670e-2
-0.411, 2.676e-2
-0.412, 2.682e-2
-0.413, 2.688e-2
-0.414, 2.694e-2
-0.415, 2.701e-2
-0.416, 2.707e-2
-0.417, 2.713e-2
-0.418, 2.722e-2
-0.419, 2.725e-2
-0.420, 2.731e-2
-0.421, 2.741e-2
-0.422, 2.747e-2
-0.423, 2.750e-2
-0.424, 2.756e-2
-0.425, 2.762e-2
-0.426, 2.771e-2
-0.427, 2.777e-2
-0.428, 2.783e-2
-0.429, 2.790e-2
-0.430, 2.793e-2
-0.431, 2.802e-2
-0.432, 2.808e-2
-0.433, 2.811e-2
-0.434, 2.820e-2
-0.435, 2.826e-2
-0.436, 2.833e-2
-0.437, 2.839e-2
-0.438, 2.845e-2
-0.439, 2.851e-2
-0.440, 2.857e-2
-0.441, 2.863e-2
-0.442, 2.869e-2
-0.443, 2.876e-2
-0.444, 2.882e-2
-0.445, 2.888e-2
-0.446, 2.894e-2
-0.447, 2.900e-2
-0.448, 2.906e-2
-0.449, 2.912e-2
-0.450, 2.918e-2
-0.451, 2.925e-2
-0.452, 2.931e-2
-0.453, 2.937e-2
-0.454, 2.943e-2
-0.455, 2.949e-2
-0.456, 2.955e-2
-0.457, 2.961e-2
-0.458, 2.968e-2
-0.459, 2.977e-2
-0.460, 2.983e-2
-0.461, 2.989e-2
-0.462, 2.992e-2
-0.463, 2.998e-2
-0.464, 3.004e-2
-0.465, 3.011e-2
-0.466, 3.017e-2
-0.467, 3.026e-2
-0.468, 3.032e-2
-0.469, 3.035e-2
-0.470, 3.044e-2
-0.471, 3.050e-2
-0.472, 3.057e-2
-0.473, 3.060e-2
-0.474, 3.066e-2
-0.475, 3.075e-2
-0.476, 3.081e-2
-0.477, 3.087e-2
-0.478, 3.093e-2
-0.479, 3.099e-2
-0.480, 3.106e-2
-0.481, 3.112e-2
-0.482, 3.118e-2
-0.483, 3.124e-2
-0.484, 3.130e-2
-0.485, 3.136e-2
-0.486, 3.142e-2
-0.487, 3.149e-2
-0.488, 3.155e-2
-0.489, 3.161e-2
-0.490, 3.167e-2
-0.491, 3.173e-2
-0.492, 3.179e-2
-0.493, 3.185e-2
-0.494, 3.195e-2
-0.495, 3.198e-2
-0.496, 3.207e-2
-0.497, 3.210e-2
-0.498, 3.219e-2
-0.499, 3.225e-2
-0.500, 3.231e-2
-0.501, 3.238e-2
-0.502, 3.244e-2
-0.503, 3.247e-2
-0.504, 3.256e-2
-0.505, 3.262e-2
-0.506, 3.268e-2
-0.507, 3.274e-2
-0.508, 3.281e-2
-0.509, 3.287e-2
-0.510, 3.293e-2
-0.511, 3.299e-2
-0.512, 3.305e-2
-0.513, 3.311e-2
-0.514, 3.317e-2
-0.515, 3.323e-2
-0.516, 3.330e-2
-0.517, 3.336e-2
-0.518, 3.342e-2
-0.519, 3.348e-2
-0.520, 3.357e-2
-0.521, 3.363e-2
-0.522, 3.366e-2
-0.523, 3.373e-2
-0.524, 3.382e-2
-0.525, 3.385e-2
-0.526, 3.394e-2
-0.527, 3.400e-2
-0.528, 3.406e-2
-0.529, 3.412e-2
-0.530, 3.419e-2
-0.531, 3.425e-2
-0.532, 3.431e-2
-0.533, 3.437e-2
-0.534, 3.443e-2
-0.535, 3.449e-2
-0.536, 3.455e-2
-0.537, 3.462e-2
-0.538, 3.468e-2
-0.539, 3.474e-2
-0.540, 3.480e-2
-0.541, 3.486e-2
-0.542, 3.492e-2
-0.543, 3.498e-2
-0.544, 3.504e-2
-0.545, 3.511e-2
-0.546, 3.517e-2
-0.547, 3.523e-2
-0.548, 3.529e-2
-0.549, 3.535e-2
-0.550, 3.544e-2
-0.551, 3.547e-2
-0.552, 3.554e-2
-0.553, 3.560e-2
-0.554, 3.566e-2
-0.555, 3.572e-2
-0.556, 3.581e-2
-0.557, 3.587e-2
-0.558, 3.593e-2
-0.559, 3.600e-2
-0.560, 3.606e-2
-0.561, 3.612e-2
-0.562, 3.615e-2
-0.563, 3.624e-2
-0.564, 3.630e-2
-0.565, 3.636e-2
-0.566, 3.643e-2
-0.567, 3.649e-2
-0.568, 3.655e-2
-0.569, 3.661e-2
-0.570, 3.670e-2
-0.571, 3.676e-2
-0.572, 3.682e-2
-0.573, 3.689e-2
-0.574, 3.695e-2
-0.575, 3.701e-2
-0.576, 3.707e-2
-0.577, 3.713e-2
-0.578, 3.719e-2
-0.579, 3.725e-2
-0.580, 3.732e-2
-0.581, 3.738e-2
-0.582, 3.744e-2
-0.583, 3.750e-2
-0.584, 3.756e-2
-0.585, 3.762e-2
-0.586, 3.768e-2
-0.587, 3.774e-2
-0.588, 3.781e-2
-0.589, 3.787e-2
-0.590, 3.796e-2
-0.591, 3.802e-2
-0.592, 3.808e-2
-0.593, 3.814e-2
-0.594, 3.821e-2
-0.595, 3.827e-2
-0.596, 3.833e-2
-0.597, 3.839e-2
-0.598, 3.848e-2
-0.599, 3.851e-2
-0.600, 3.857e-2
-0.601, 3.867e-2
-0.602, 3.870e-2
-0.603, 3.876e-2
-0.604, 3.882e-2
-0.605, 3.891e-2
-0.606, 3.897e-2
-0.607, 3.903e-2
-0.608, 3.909e-2
-0.609, 3.916e-2
-0.610, 3.922e-2
-0.611, 3.928e-2
-0.612, 3.934e-2
-0.613, 3.940e-2
-0.614, 3.946e-2
-0.615, 3.952e-2
-0.616, 3.962e-2
-0.617, 3.968e-2
-0.618, 3.974e-2
-0.619, 3.980e-2
-0.620, 3.986e-2
-0.621, 3.995e-2
-0.622, 4.002e-2
-0.623, 4.008e-2
-0.624, 4.014e-2
-0.625, 4.020e-2
-0.626, 4.026e-2
-0.627, 4.032e-2
-0.628, 4.038e-2
-0.629, 4.044e-2
-0.630, 4.051e-2
-0.631, 4.057e-2
-0.632, 4.063e-2
-0.633, 4.072e-2
-0.634, 4.078e-2
-0.635, 4.084e-2
-0.636, 4.091e-2
-0.637, 4.097e-2
-0.638, 4.103e-2
-0.639, 4.109e-2
-0.640, 4.115e-2
-0.641, 4.124e-2
-0.642, 4.130e-2
-0.643, 4.137e-2
-0.644, 4.143e-2
-0.645, 4.149e-2
-0.646, 4.155e-2
-0.647, 4.164e-2
-0.648, 4.170e-2
-0.649, 4.176e-2
-0.650, 4.183e-2
-0.651, 4.189e-2
-0.652, 4.195e-2
-0.653, 4.201e-2
-0.654, 4.207e-2
-0.655, 4.213e-2
-0.656, 4.219e-2
-0.657, 4.229e-2
-0.658, 4.235e-2
-0.659, 4.241e-2
-0.660, 4.247e-2
-0.661, 4.253e-2
-0.662, 4.259e-2
-0.663, 4.265e-2
-0.664, 4.272e-2
-0.665, 4.278e-2
-0.666, 4.284e-2
-0.667, 4.293e-2
-0.668, 4.299e-2
-0.669, 4.305e-2
-0.670, 4.311e-2
-0.671, 4.321e-2
-0.672, 4.327e-2
-0.673, 4.330e-2
-0.674, 4.336e-2
-0.675, 4.342e-2
-0.676, 4.351e-2
-0.677, 4.357e-2
-0.678, 4.364e-2
-0.679, 4.370e-2
-0.680, 4.376e-2
-0.681, 4.382e-2
-0.682, 4.388e-2
-0.683, 4.394e-2
-0.684, 4.400e-2
-0.685, 4.407e-2
-0.686, 4.416e-2
-0.687, 4.422e-2
-0.688, 4.431e-2
-0.689, 4.434e-2
-0.690, 4.443e-2
-0.691, 4.449e-2
-0.692, 4.456e-2
-0.693, 4.462e-2
-0.694, 4.468e-2
-0.695, 4.474e-2
-0.696, 4.480e-2
-0.697, 4.489e-2
-0.698, 4.496e-2
-0.699, 4.502e-2
-0.700, 4.508e-2
-0.701, 4.514e-2
-0.702, 4.523e-2
-0.703, 4.529e-2
-0.704, 4.535e-2
-0.705, 4.542e-2
-0.706, 4.548e-2
-0.707, 4.557e-2
-0.708, 4.563e-2
-0.709, 4.569e-2
-0.710, 4.575e-2
-0.711, 4.581e-2
-0.712, 4.588e-2
-0.713, 4.594e-2
-0.714, 4.603e-2
-0.715, 4.609e-2
-0.716, 4.615e-2
-0.717, 4.624e-2
-0.718, 4.631e-2
-0.719, 4.637e-2
-0.720, 4.643e-2
-0.721, 4.649e-2
-0.722, 4.655e-2
-0.723, 4.661e-2
-0.724, 4.670e-2
-0.725, 4.677e-2
-0.726, 4.686e-2
-0.727, 4.692e-2
-0.728, 4.698e-2
-0.729, 4.704e-2
-0.730, 4.713e-2
-0.731, 4.719e-2
-0.732, 4.726e-2
-0.733, 4.732e-2
-0.734, 4.738e-2
-0.735, 4.744e-2
-0.736, 4.753e-2
-0.737, 4.759e-2
-0.738, 4.766e-2
-0.739, 4.775e-2
-0.740, 4.781e-2
-0.741, 4.787e-2
-0.742, 4.793e-2
-0.743, 4.799e-2
-0.744, 4.805e-2
-0.745, 4.815e-2
-0.746, 4.821e-2
-0.747, 4.830e-2
-0.748, 4.836e-2
-0.749, 4.842e-2
-0.750, 4.851e-2
-0.751, 4.858e-2
-0.752, 4.864e-2
-0.753, 4.870e-2
-0.754, 4.876e-2
-0.755, 4.885e-2
-0.756, 4.891e-2
-0.757, 4.897e-2
-0.758, 4.907e-2
-0.759, 4.913e-2
-0.760, 4.919e-2
-0.761, 4.925e-2
-0.762, 4.934e-2
-0.763, 4.940e-2
-0.764, 4.947e-2
-0.765, 4.956e-2
-0.766, 4.962e-2
-0.767, 4.971e-2
-0.768, 4.977e-2
-0.769, 4.986e-2
-0.770, 4.989e-2
-0.771, 4.999e-2
-0.772, 5.005e-2
-0.773, 5.011e-2
-0.774, 5.020e-2
-0.775, 5.026e-2
-0.776, 5.036e-2
-0.777, 5.042e-2
-0.778, 5.048e-2
-0.779, 5.054e-2
-0.780, 5.063e-2
-0.781, 5.069e-2
-0.782, 5.078e-2
-0.783, 5.085e-2
-0.784, 5.091e-2
-0.785, 5.100e-2
-0.786, 5.106e-2
-0.787, 5.115e-2
-0.788, 5.121e-2
-0.789, 5.128e-2
-0.790, 5.137e-2
-0.791, 5.146e-2
-0.792, 5.152e-2
-0.793, 5.161e-2
-0.794, 5.167e-2
-0.795, 5.177e-2
-0.796, 5.183e-2
-0.797, 5.192e-2
-0.798, 5.201e-2
-0.799, 5.207e-2
-0.800, 5.210e-2
-0.799, 5.174e-2
-0.798, 5.134e-2
-0.797, 5.097e-2
-0.796, 5.063e-2
-0.795, 5.032e-2
-0.794, 5.002e-2
-0.793, 4.971e-2
-0.792, 4.940e-2
-0.791, 4.913e-2
-0.790, 4.885e-2
-0.789, 4.858e-2
-0.788, 4.833e-2
-0.787, 4.805e-2
-0.786, 4.778e-2
-0.785, 4.753e-2
-0.784, 4.729e-2
-0.783, 4.704e-2
-0.782, 4.680e-2
-0.781, 4.658e-2
-0.780, 4.634e-2
-0.779, 4.609e-2
-0.778, 4.584e-2
-0.777, 4.563e-2
-0.776, 4.538e-2
-0.775, 4.517e-2
-0.774, 4.496e-2
-0.773, 4.471e-2
-0.772, 4.453e-2
-0.771, 4.431e-2
-0.770, 4.410e-2
-0.769, 4.388e-2
-0.768, 4.367e-2
-0.767, 4.345e-2
-0.766, 4.324e-2
-0.765, 4.305e-2
-0.764, 4.284e-2
-0.763, 4.262e-2
-0.762, 4.244e-2
-0.761, 4.226e-2
-0.760, 4.204e-2
-0.759, 4.186e-2
-0.758, 4.164e-2
-0.757, 4.146e-2
-0.756, 4.124e-2
-0.755, 4.106e-2
-0.754, 4.087e-2
-0.753, 4.069e-2
-0.752, 4.054e-2
-0.751, 4.035e-2
-0.750, 4.017e-2
-0.749, 3.998e-2
-0.748, 3.980e-2
-0.747, 3.962e-2
-0.746, 3.940e-2
-0.745, 3.925e-2
-0.744, 3.906e-2
-0.743, 3.888e-2
-0.742, 3.873e-2
-0.741, 3.854e-2
-0.740, 3.839e-2
-0.739, 3.824e-2
-0.738, 3.805e-2
-0.737, 3.787e-2
-0.736, 3.771e-2
-0.735, 3.753e-2
-0.734, 3.738e-2
-0.733, 3.719e-2
-0.732, 3.704e-2
-0.731, 3.689e-2
-0.730, 3.670e-2
-0.729, 3.655e-2
-0.728, 3.636e-2
-0.727, 3.621e-2
-0.726, 3.603e-2
-0.725, 3.584e-2
-0.724, 3.569e-2
-0.723, 3.554e-2
-0.722, 3.535e-2
-0.721, 3.520e-2
-0.720, 3.504e-2
-0.719, 3.486e-2
-0.718, 3.471e-2
-0.717, 3.455e-2
-0.716, 3.437e-2
-0.715, 3.422e-2
-0.714, 3.406e-2
-0.713, 3.391e-2
-0.712, 3.376e-2
-0.711, 3.360e-2
-0.710, 3.342e-2
-0.709, 3.330e-2
-0.708, 3.314e-2
-0.707, 3.299e-2
-0.706, 3.284e-2
-0.705, 3.265e-2
-0.704, 3.250e-2
-0.703, 3.234e-2
-0.702, 3.222e-2
-0.701, 3.207e-2
-0.700, 3.192e-2
-0.699, 3.176e-2
-0.698, 3.161e-2
-0.697, 3.149e-2
-0.696, 3.133e-2
-0.695, 3.121e-2
-0.694, 3.106e-2
-0.693, 3.090e-2
-0.692, 3.078e-2
-0.691, 3.063e-2
-0.690, 3.050e-2
-0.689, 3.035e-2
-0.688, 3.020e-2
-0.687, 3.007e-2
-0.686, 2.992e-2
-0.685, 2.980e-2
-0.684, 2.964e-2
-0.683, 2.949e-2
-0.682, 2.937e-2
-0.681, 2.922e-2
-0.680, 2.906e-2
-0.679, 2.894e-2
-0.678, 2.879e-2
-0.677, 2.866e-2
-0.676, 2.851e-2
-0.675, 2.839e-2
-0.674, 2.823e-2
-0.673, 2.811e-2
-0.672, 2.796e-2
-0.671, 2.783e-2
-0.670, 2.771e-2
-0.669, 2.759e-2
-0.668, 2.744e-2
-0.667, 2.731e-2
-0.666, 2.719e-2
-0.665, 2.704e-2
-0.664, 2.691e-2
-0.663, 2.679e-2
-0.662, 2.664e-2
-0.661, 2.652e-2
-0.660, 2.639e-2
-0.659, 2.627e-2
-0.658, 2.612e-2
-0.657, 2.599e-2
-0.656, 2.587e-2
-0.655, 2.575e-2
-0.654, 2.563e-2
-0.653, 2.550e-2
-0.652, 2.535e-2
-0.651, 2.523e-2
-0.650, 2.510e-2
-0.649, 2.495e-2
-0.648, 2.483e-2
-0.647, 2.471e-2
-0.646, 2.458e-2
-0.645, 2.446e-2
-0.644, 2.434e-2
-0.643, 2.421e-2
-0.642, 2.409e-2
-0.641, 2.397e-2
-0.640, 2.385e-2
-0.639, 2.372e-2
-0.638, 2.360e-2
-0.637, 2.345e-2
-0.636, 2.332e-2
-0.635, 2.323e-2
-0.634, 2.311e-2
-0.633, 2.299e-2
-0.632, 2.286e-2
-0.631, 2.274e-2
-0.630, 2.262e-2
-0.629, 2.250e-2
-0.628, 2.237e-2
-0.627, 2.225e-2
-0.626, 2.213e-2
-0.625, 2.201e-2
-0.624, 2.188e-2
-0.623, 2.176e-2
-0.622, 2.167e-2
-0.621, 2.154e-2
-0.620, 2.142e-2
-0.619, 2.130e-2
-0.618, 2.118e-2
-0.617, 2.108e-2
-0.616, 2.096e-2
-0.615, 2.084e-2
-0.614, 2.072e-2
-0.613, 2.059e-2
-0.612, 2.050e-2
-0.611, 2.038e-2
-0.610, 2.026e-2
-0.609, 2.013e-2
-0.608, 2.004e-2
-0.607, 1.992e-2
-0.606, 1.980e-2
-0.605, 1.967e-2
-0.604, 1.958e-2
-0.603, 1.946e-2
-0.602, 1.934e-2
-0.601, 1.924e-2
-0.600, 1.912e-2
-0.599, 1.900e-2
-0.598, 1.891e-2
-0.597, 1.878e-2
-0.596, 1.866e-2
-0.595, 1.857e-2
-0.594, 1.845e-2
-0.593, 1.835e-2
-0.592, 1.823e-2
-0.591, 1.811e-2
-0.590, 1.802e-2
-0.589, 1.789e-2
-0.588, 1.780e-2
-0.587, 1.768e-2
-0.586, 1.759e-2
-0.585, 1.746e-2
-0.584, 1.737e-2
-0.583, 1.725e-2
-0.582, 1.716e-2
-0.581, 1.703e-2
-0.580, 1.694e-2
-0.579, 1.685e-2
-0.578, 1.673e-2
-0.577, 1.664e-2
-0.576, 1.651e-2
-0.575, 1.642e-2
-0.574, 1.630e-2
-0.573, 1.621e-2
-0.572, 1.611e-2
-0.571, 1.599e-2
-0.570, 1.590e-2
-0.569, 1.581e-2
-0.568, 1.568e-2
-0.567, 1.559e-2
-0.566, 1.547e-2
-0.565, 1.538e-2
-0.564, 1.529e-2
-0.563, 1.516e-2
-0.562, 1.507e-2
-0.561, 1.498e-2
-0.560, 1.489e-2
-0.559, 1.479e-2
-0.558, 1.470e-2
-0.557, 1.458e-2
-0.556, 1.449e-2
-0.555, 1.440e-2
-0.554, 1.427e-2
-0.553, 1.418e-2
-0.552, 1.409e-2
-0.551, 1.400e-2
-0.550, 1.391e-2
-0.549, 1.381e-2
-0.548, 1.369e-2
-0.547, 1.360e-2
-0.546, 1.348e-2
-0.545, 1.338e-2
-0.544, 1.329e-2
-0.543, 1.320e-2
-0.542, 1.311e-2
-0.541, 1.298e-2
-0.540, 1.289e-2
-0.539, 1.280e-2
-0.538, 1.271e-2
-0.537, 1.262e-2
-0.536, 1.252e-2
-0.535, 1.240e-2
-0.534, 1.234e-2
-0.533, 1.222e-2
-0.532, 1.213e-2
-0.531, 1.203e-2
-0.530, 1.194e-2
-0.529, 1.185e-2
-0.528, 1.176e-2
-0.527, 1.167e-2
-0.526, 1.154e-2
-0.525, 1.145e-2
-0.524, 1.136e-2
-0.523, 1.127e-2
-0.522, 1.117e-2
-0.521, 1.108e-2
-0.520, 1.099e-2
-0.519, 1.090e-2
-0.518, 1.081e-2
-0.517, 1.071e-2
-0.516, 1.062e-2
-0.515, 1.053e-2
-0.514, 1.044e-2
-0.513, 1.035e-2
-0.512, 1.025e-2
-0.511, 1.016e-2
-0.510, 1.007e-2
-0.509, 9.978e-3
-0.508, 9.886e-3
-0.507, 9.794e-3
-0.506, 9.702e-3
-0.505, 9.610e-3
-0.504, 9.518e-3
-0.503, 9.426e-3
-0.502, 9.334e-3
-0.501, 9.242e-3
-0.500, 9.150e-3
-0.499, 9.058e-3
-0.498, 8.965e-3
-0.497, 8.873e-3
-0.496, 8.781e-3
-0.495, 8.689e-3
-0.494, 8.628e-3
-0.493, 8.505e-3
-0.492, 8.444e-3
-0.491, 8.321e-3
-0.490, 8.260e-3
-0.489, 8.168e-3
-0.488, 8.076e-3
-0.487, 7.984e-3
-0.486, 7.892e-3
-0.485, 7.800e-3
-0.484, 7.708e-3
-0.483, 7.615e-3
-0.482, 7.523e-3
-0.481, 7.431e-3
-0.480, 7.370e-3
-0.479, 7.278e-3
-0.478, 7.186e-3
-0.477, 7.094e-3
-0.476, 7.002e-3
-0.475, 6.910e-3
-0.474, 6.848e-3
-0.473, 6.756e-3
-0.472, 6.664e-3
-0.471, 6.572e-3
-0.470, 6.480e-3
-0.469, 6.419e-3
-0.468, 6.327e-3
-0.467, 6.235e-3
-0.466, 6.143e-3
-0.465, 6.051e-3
-0.464, 5.989e-3
-0.463, 5.897e-3
-0.462, 5.805e-3
-0.461, 5.713e-3
-0.460, 5.652e-3
-0.459, 5.560e-3
-0.458, 5.468e-3
-0.457, 5.376e-3
-0.456, 5.284e-3
-0.455, 5.222e-3
-0.454, 5.130e-3
-0.453, 5.038e-3
-0.452, 4.977e-3
-0.451, 4.885e-3
-0.450, 4.793e-3
-0.449, 4.731e-3
-0.448, 4.639e-3
-0.447, 4.547e-3
-0.446, 4.455e-3
-0.445, 4.363e-3
-0.444, 4.302e-3
-0.443, 4.210e-3
-0.442, 4.118e-3
-0.441, 4.026e-3
-0.440, 3.964e-3
-0.439, 3.872e-3
-0.438, 3.780e-3
-0.437, 3.719e-3
-0.436, 3.627e-3
-0.435, 3.535e-3
-0.434, 3.473e-3
-0.433, 3.381e-3
-0.432, 3.320e-3
-0.431, 3.228e-3
-0.430, 3.136e-3
-0.429, 3.075e-3
-0.428, 2.983e-3
-0.427, 2.890e-3
-0.426, 2.798e-3
-0.425, 2.737e-3
-0.424, 2.676e-3
-0.423, 2.584e-3
-0.422, 2.492e-3
-0.421, 2.430e-3
-0.420, 2.338e-3
-0.419, 2.277e-3
-0.418, 2.185e-3
-0.417, 2.123e-3
-0.416, 2.031e-3
-0.415, 1.939e-3
-0.414, 1.878e-3
-0.413, 1.786e-3
-0.412, 1.725e-3
-0.411, 1.633e-3
-0.410, 1.571e-3
-0.409, 1.479e-3
-0.408, 1.387e-3
-0.407, 1.295e-3
-0.406, 1.234e-3
-0.405, 1.172e-3
-0.404, 1.080e-3
-0.403, 9.882e-4
-0.402, 9.268e-4
-0.401, 8.655e-4
-0.400, 7.734e-4
-0.399, 7.121e-4
-0.398, 6.200e-4
-0.397, 5.587e-4
-0.396, 4.666e-4
-0.395, 3.746e-4
-0.394, 3.132e-4
-0.393, 2.212e-4
-0.392, 1.598e-4
-0.391, 6.775e-5
-0.390, 6.382e-6
-0.389, -5.498e-5
-0.388, -1.470e-4
-0.387, -2.391e-4
-0.386, -3.004e-4
-0.385, -3.925e-4
-0.384, -4.538e-4
-0.383, -5.459e-4
-0.382, -6.073e-4
-0.381, -6.993e-4
-0.380, -7.607e-4
-0.379, -8.220e-4
-0.378, -9.141e-4
-0.377, -9.754e-4
-0.376, -1.067e-3
-0.375, -1.129e-3
-0.374, -1.190e-3
-0.373, -1.282e-3
-0.372, -1.344e-3
-0.371, -1.436e-3
-0.370, -1.497e-3
-0.369, -1.558e-3
-0.368, -1.650e-3
-0.367, -1.712e-3
-0.366, -1.804e-3
-0.365, -1.865e-3
-0.364, -1.957e-3
-0.363, -2.019e-3
-0.362, -2.080e-3
-0.361, -2.172e-3
-0.360, -2.233e-3
-0.359, -2.295e-3
-0.358, -2.387e-3
-0.357, -2.448e-3
-0.356, -2.540e-3
-0.355, -2.602e-3
-0.354, -2.694e-3
-0.353, -2.755e-3
-0.352, -2.816e-3
-0.351, -2.908e-3
-0.350, -2.970e-3
-0.349, -3.031e-3
-0.348, -3.123e-3
-0.347, -3.185e-3
-0.346, -3.246e-3
-0.345, -3.338e-3
-0.344, -3.399e-3
-0.343, -3.461e-3
-0.342, -3.522e-3
-0.341, -3.614e-3
-0.340, -3.675e-3
-0.339, -3.737e-3
-0.338, -3.829e-3
-0.337, -3.890e-3
-0.336, -3.982e-3
-0.335, -4.044e-3
-0.334, -4.105e-3
-0.333, -4.166e-3
-0.332, -4.258e-3
-0.331, -4.320e-3
-0.330, -4.381e-3
-0.329, -4.473e-3
-0.328, -4.535e-3
-0.327, -4.596e-3
-0.326, -4.688e-3
-0.325, -4.749e-3
-0.324, -4.811e-3
-0.323, -4.872e-3
-0.322, -4.933e-3
-0.321, -5.025e-3
-0.320, -5.087e-3
-0.319, -5.148e-3
-0.318, -5.240e-3
-0.317, -5.302e-3
-0.316, -5.394e-3
-0.315, -5.455e-3
-0.314, -5.516e-3
-0.313, -5.578e-3
-0.312, -5.639e-3
-0.311, -5.731e-3
-0.310, -5.792e-3
-0.309, -5.854e-3
-0.308, -5.915e-3
-0.307, -6.007e-3
-0.306, -6.069e-3
-0.305, -6.130e-3
-0.304, -6.191e-3
-0.303, -6.283e-3
-0.302, -6.314e-3
-0.301, -6.406e-3
-0.300, -6.467e-3
-0.299, -6.529e-3
-0.298, -6.621e-3
-0.297, -6.682e-3
-0.296, -6.744e-3
-0.295, -6.805e-3
-0.294, -6.866e-3
-0.293, -6.958e-3
-0.292, -7.020e-3
-0.291, -7.081e-3
-0.290, -7.142e-3
-0.289, -7.204e-3
-0.288, -7.296e-3
-0.287, -7.357e-3
-0.286, -7.419e-3
-0.285, -7.480e-3
-0.284, -7.541e-3
-0.283, -7.633e-3
-0.282, -7.695e-3
-0.281, -7.756e-3
-0.280, -7.817e-3
-0.279, -7.879e-3
-0.278, -7.971e-3
-0.277, -8.032e-3
-0.276, -8.094e-3
-0.275, -8.155e-3
-0.274, -8.216e-3
-0.273, -8.308e-3
-0.272, -8.370e-3
-0.271, -8.431e-3
-0.270, -8.492e-3
-0.269, -8.554e-3
-0.268, -8.646e-3
-0.267, -8.707e-3
-0.266, -8.769e-3
-0.265, -8.830e-3
-0.264, -8.891e-3
-0.263, -8.953e-3
-0.262, -9.014e-3
-0.261, -9.075e-3
-0.260, -9.137e-3
-0.259, -9.198e-3
-0.258, -9.290e-3
-0.257, -9.352e-3
-0.256, -9.413e-3
-0.255, -9.474e-3
-0.254, -9.536e-3
-0.253, -9.597e-3
-0.252, -9.658e-3
-0.251, -9.720e-3
-0.250, -9.812e-3
-0.249, -9.873e-3
-0.248, -9.935e-3
-0.247, -9.996e-3
-0.246, -1.006e-2
-0.245, -1.012e-2
-0.244, -1.018e-2
-0.243, -1.027e-2
-0.242, -1.033e-2
-0.241, -1.039e-2
-0.240, -1.046e-2
-0.239, -1.052e-2
-0.238, -1.058e-2
-0.237, -1.064e-2
-0.236, -1.070e-2
-0.235, -1.076e-2
-0.234, -1.082e-2
-0.233, -1.089e-2
-0.232, -1.095e-2
-0.231, -1.101e-2
-0.230, -1.107e-2
-0.229, -1.113e-2
-0.228, -1.122e-2
-0.227, -1.128e-2
-0.226, -1.135e-2
-0.225, -1.141e-2
-0.224, -1.147e-2
-0.223, -1.153e-2
-0.222, -1.159e-2
-0.221, -1.165e-2
-0.220, -1.171e-2
-0.219, -1.178e-2
-0.218, -1.184e-2
-0.217, -1.190e-2
-0.216, -1.199e-2
-0.215, -1.202e-2
-0.214, -1.208e-2
-0.213, -1.214e-2
-0.212, -1.220e-2
-0.211, -1.227e-2
-0.210, -1.233e-2
-0.209, -1.239e-2
-0.208, -1.245e-2
-0.207, -1.254e-2
-0.206, -1.260e-2
-0.205, -1.267e-2
-0.204, -1.273e-2
-0.203, -1.279e-2
-0.202, -1.285e-2
-0.201, -1.291e-2
-0.200, -1.297e-2
-0.199, -1.303e-2
-0.198, -1.309e-2
-0.197, -1.316e-2
-0.196, -1.322e-2
-0.195, -1.328e-2
-0.194, -1.334e-2
-0.193, -1.340e-2
-0.192, -1.346e-2
-0.191, -1.352e-2
-0.190, -1.359e-2
-0.189, -1.362e-2
-0.188, -1.371e-2
-0.187, -1.377e-2
-0.186, -1.383e-2
-0.185, -1.389e-2
-0.184, -1.392e-2
-0.183, -1.402e-2
-0.182, -1.408e-2
-0.181, -1.414e-2
-0.180, -1.417e-2
-0.179, -1.423e-2
-0.178, -1.432e-2
-0.177, -1.438e-2
-0.176, -1.444e-2
-0.175, -1.451e-2
-0.174, -1.454e-2
-0.173, -1.463e-2
-0.172, -1.466e-2
-0.171, -1.472e-2
-0.170, -1.481e-2
-0.169, -1.484e-2
-0.168, -1.490e-2
-0.167, -1.497e-2
-0.166, -1.506e-2
-0.165, -1.509e-2
-0.164, -1.515e-2
-0.163, -1.521e-2
-0.162, -1.527e-2
-0.161, -1.533e-2
-0.160, -1.540e-2
-0.159, -1.546e-2
-0.158, -1.552e-2
-0.157, -1.558e-2
-0.156, -1.564e-2
-0.155, -1.570e-2
-0.154, -1.576e-2
-0.153, -1.583e-2
-0.152, -1.589e-2
-0.151, -1.595e-2
-0.150, -1.601e-2
-0.149, -1.607e-2
-0.148, -1.613e-2
-0.147, -1.619e-2
-0.146, -1.625e-2
-0.145, -1.632e-2
-0.144, -1.635e-2
-0.143, -1.641e-2
-0.142, -1.647e-2
-0.141, -1.653e-2
-0.140, -1.659e-2
-0.139, -1.665e-2
-0.138, -1.672e-2
-0.137, -1.678e-2
-0.136, -1.684e-2
-0.135, -1.690e-2
-0.134, -1.696e-2
-0.133, -1.702e-2
-0.132, -1.708e-2
-0.131, -1.711e-2
-0.130, -1.718e-2
-0.129, -1.724e-2
-0.128, -1.730e-2
-0.127, -1.736e-2
-0.126, -1.742e-2
-0.125, -1.748e-2
-0.124, -1.754e-2
-0.123, -1.760e-2
-0.122, -1.767e-2
-0.121, -1.770e-2
-0.120, -1.776e-2
-0.119, -1.782e-2
-0.118, -1.788e-2
-0.117, -1.794e-2
-0.116, -1.800e-2
-0.115, -1.807e-2
-0.114, -1.813e-2
-0.113, -1.819e-2
-0.112, -1.825e-2
-0.111, -1.831e-2
-0.110, -1.834e-2
-0.109, -1.840e-2
-0.108, -1.846e-2
-0.107, -1.853e-2
-0.106, -1.859e-2
-0.105, -1.865e-2
-0.104, -1.871e-2
-0.103, -1.877e-2
-0.102, -1.883e-2
-0.101, -1.886e-2
-0.100, -1.892e-2
-0.099, -1.899e-2
-0.098, -1.905e-2
-0.097, -1.911e-2
-0.096, -1.917e-2
-0.095, -1.923e-2
-0.094, -1.926e-2
-0.093, -1.932e-2
-0.092, -1.938e-2
-0.091, -1.945e-2
-0.090, -1.948e-2
-0.089, -1.954e-2
-0.088, -1.960e-2
-0.087, -1.966e-2
-0.086, -1.972e-2
-0.085, -1.978e-2
-0.084, -1.984e-2
-0.083, -1.991e-2
-0.082, -1.994e-2
-0.081, -2.000e-2
-0.080, -2.006e-2
-0.079, -2.012e-2
-0.078, -2.018e-2
-0.077, -2.024e-2
-0.076, -2.030e-2
-0.075, -2.037e-2
-0.074, -2.040e-2
-0.073, -2.046e-2
-0.072, -2.052e-2
-0.071, -2.058e-2
-0.070, -2.064e-2
-0.069, -2.070e-2
-0.068, -2.077e-2
-0.067, -2.080e-2
-0.066, -2.086e-2
-0.065, -2.092e-2
-0.064, -2.098e-2
-0.063, -2.104e-2
-0.062, -2.110e-2
-0.061, -2.113e-2
-0.060, -2.119e-2
-0.059, -2.126e-2
-0.058, -2.132e-2
-0.057, -2.135e-2
-0.056, -2.144e-2
-0.055, -2.147e-2
-0.054, -2.153e-2
-0.053, -2.159e-2
-0.052, -2.165e-2
-0.051, -2.172e-2
-0.050, -2.178e-2
-0.049, -2.181e-2
-0.048, -2.187e-2
-0.047, -2.193e-2
-0.046, -2.199e-2
-0.045, -2.205e-2
-0.044, -2.212e-2
-0.043, -2.215e-2
-0.042, -2.221e-2
-0.041, -2.227e-2
-0.040, -2.233e-2
-0.039, -2.236e-2
-0.038, -2.245e-2
-0.037, -2.248e-2
-0.036, -2.254e-2
-0.035, -2.261e-2
-0.034, -2.267e-2
-0.033, -2.273e-2
-0.032, -2.276e-2
-0.031, -2.285e-2
-0.030, -2.288e-2
-0.029, -2.294e-2
-0.028, -2.300e-2
-0.027, -2.307e-2
-0.026, -2.313e-2
-0.025, -2.319e-2
-0.024, -2.322e-2
-0.023, -2.328e-2
-0.022, -2.334e-2
-0.021, -2.340e-2
-0.020, -2.343e-2
-0.019, -2.350e-2
-0.018, -2.356e-2
-0.017, -2.362e-2
-0.016, -2.368e-2
-0.015, -2.374e-2
-0.014, -2.377e-2
-0.013, -2.383e-2
-0.012, -2.389e-2
-0.011, -2.396e-2
-0.010, -2.402e-2
-0.009, -2.405e-2
-0.008, -2.411e-2
-0.007, -2.417e-2
-0.006, -2.423e-2
-0.005, -2.429e-2
-0.004, -2.435e-2
-0.003, -2.439e-2
-0.002, -2.445e-2
-0.001, -2.451e-2
-0.000, -2.457e-2
0.001, -2.463e-2
0.002, -2.469e-2
0.003, -2.475e-2
0.004, -2.478e-2
0.005, -2.485e-2
0.006, -2.491e-2
0.007, -2.497e-2
0.008, -2.503e-2
0.009, -2.506e-2
0.010, -2.512e-2
0.011, -2.515e-2
0.012, -2.521e-2
0.013, -2.528e-2
0.014, -2.534e-2
0.015, -2.540e-2
0.016, -2.546e-2
0.017, -2.549e-2
0.018, -2.555e-2
0.019, -2.561e-2
0.020, -2.567e-2
0.021, -2.570e-2
0.022, -2.577e-2
0.023, -2.583e-2
0.024, -2.589e-2
0.025, -2.595e-2
0.026, -2.601e-2
0.027, -2.604e-2
0.028, -2.610e-2
0.029, -2.617e-2
0.030, -2.623e-2
0.031, -2.626e-2
0.032, -2.632e-2
0.033, -2.638e-2
0.034, -2.644e-2
0.035, -2.650e-2
0.036, -2.653e-2
0.037, -2.659e-2
0.038, -2.666e-2
0.039, -2.672e-2
0.040, -2.678e-2
0.041, -2.681e-2
0.042, -2.687e-2
0.043, -2.693e-2
0.044, -2.699e-2
0.045, -2.705e-2
0.046, -2.709e-2
0.047, -2.715e-2
0.048, -2.721e-2
0.049, -2.724e-2
0.050, -2.730e-2
0.051, -2.736e-2
0.052, -2.742e-2
0.053, -2.748e-2
0.054, -2.755e-2
0.055, -2.761e-2
0.056, -2.764e-2
0.057, -2.770e-2
0.058, -2.776e-2
0.059, -2.782e-2
0.060, -2.785e-2
0.061, -2.791e-2
0.062, -2.798e-2
0.063, -2.804e-2
0.064, -2.810e-2
0.065, -2.813e-2
0.066, -2.819e-2
0.067, -2.825e-2
0.068, -2.828e-2
0.069, -2.834e-2
0.070, -2.840e-2
0.071, -2.847e-2
0.072, -2.853e-2
0.073, -2.859e-2
0.074, -2.862e-2
0.075, -2.868e-2
0.076, -2.874e-2
0.077, -2.877e-2
0.078, -2.883e-2
0.079, -2.890e-2
0.080, -2.896e-2
0.081, -2.899e-2
0.082, -2.905e-2
0.083, -2.911e-2
0.084, -2.917e-2
0.085, -2.923e-2
0.086, -2.926e-2
0.087, -2.933e-2
0.088, -2.939e-2
0.089, -2.942e-2
0.090, -2.948e-2
0.091, -2.954e-2
0.092, -2.960e-2
0.093, -2.966e-2
0.094, -2.972e-2
0.095, -2.975e-2
0.096, -2.982e-2
0.097, -2.988e-2
0.098, -2.994e-2
0.099, -2.997e-2
0.100, -3.003e-2
0.101, -3.009e-2
0.102, -3.015e-2
0.103, -3.018e-2
0.104, -3.025e-2
0.105, -3.031e-2
0.106, -3.037e-2
0.107, -3.040e-2
0.108, -3.046e-2
0.109, -3.052e-2
0.110, -3.058e-2
0.111, -3.061e-2
0.112, -3.068e-2
0.113, -3.074e-2
0.114, -3.080e-2
0.115, -3.086e-2
0.116, -3.089e-2
0.117, -3.095e-2
0.118, -3.101e-2
0.119, -3.107e-2
0.120, -3.110e-2
0.121, -3.117e-2
0.122, -3.123e-2
0.123, -3.129e-2
0.124, -3.135e-2
0.125, -3.138e-2
0.126, -3.144e-2
0.127, -3.150e-2
0.128, -3.157e-2
0.129, -3.160e-2
0.130, -3.166e-2
0.131, -3.172e-2
0.132, -3.178e-2
0.133, -3.181e-2
0.134, -3.187e-2
0.135, -3.193e-2
0.136, -3.199e-2
0.137, -3.206e-2
0.138, -3.209e-2
0.139, -3.215e-2
0.140, -3.221e-2
0.141, -3.227e-2
0.142, -3.230e-2
0.143, -3.236e-2
0.144, -3.242e-2
0.145, -3.249e-2
0.146, -3.252e-2
0.147, -3.258e-2
0.148, -3.264e-2
0.149, -3.267e-2
0.150, -3.273e-2
0.151, -3.279e-2
0.152, -3.285e-2
0.153, -3.292e-2
0.154, -3.298e-2
0.155, -3.301e-2
0.156, -3.307e-2
0.157, -3.313e-2
0.158, -3.319e-2
0.159, -3.322e-2
0.160, -3.328e-2
0.161, -3.334e-2
0.162, -3.341e-2
0.163, -3.344e-2
0.164, -3.350e-2
0.165, -3.356e-2
0.166, -3.359e-2
0.167, -3.365e-2
0.168, -3.371e-2
0.169, -3.377e-2
0.170, -3.380e-2
0.171, -3.387e-2
0.172, -3.393e-2
0.173, -3.399e-2
0.174, -3.405e-2
0.175, -3.411e-2
0.176, -3.414e-2
0.177, -3.420e-2
0.178, -3.427e-2
0.179, -3.430e-2
0.180, -3.436e-2
0.181, -3.442e-2
0.182, -3.448e-2
0.183, -3.454e-2
0.184, -3.457e-2
0.185, -3.463e-2
0.186, -3.469e-2
0.187, -3.473e-2
0.188, -3.482e-2
0.189, -3.485e-2
0.190, -3.491e-2
0.191, -3.494e-2
0.192, -3.500e-2
0.193, -3.506e-2
0.194, -3.512e-2
0.195, -3.515e-2
0.196, -3.522e-2
0.197, -3.528e-2
0.198, -3.534e-2
0.199, -3.537e-2
0.200, -3.543e-2
0.201, -3.549e-2
0.202, -3.555e-2
0.203, -3.562e-2
0.204, -3.565e-2
0.205, -3.571e-2
0.206, -3.577e-2
0.207, -3.583e-2
0.208, -3.586e-2
0.209, -3.592e-2
0.210, -3.598e-2
0.211, -3.601e-2
0.212, -3.608e-2
0.213, -3.614e-2
0.214, -3.620e-2
0.215, -3.626e-2
0.216, -3.632e-2
0.217, -3.635e-2
0.218, -3.641e-2
0.219, -3.647e-2
0.220, -3.650e-2
0.221, -3.657e-2
0.222, -3.663e-2
0.223, -3.669e-2
0.224, -3.675e-2
0.225, -3.681e-2
0.226, -3.684e-2
0.227, -3.690e-2
0.228, -3.697e-2
0.229, -3.700e-2
0.230, -3.706e-2
0.231, -3.712e-2
0.232, -3.715e-2
0.233, -3.721e-2
0.234, -3.727e-2
0.235, -3.733e-2
0.236, -3.736e-2
0.237, -3.743e-2
0.238, -3.749e-2
0.239, -3.755e-2
0.240, -3.758e-2
0.241, -3.764e-2
0.242, -3.770e-2
0.243, -3.776e-2
0.244, -3.782e-2
0.245, -3.789e-2
0.246, -3.792e-2
0.247, -3.798e-2
0.248, -3.804e-2
0.249, -3.807e-2
0.250, -3.813e-2
0.251, -3.819e-2
0.252, -3.825e-2
0.253, -3.832e-2
0.254, -3.835e-2
0.255, -3.841e-2
0.256, -3.847e-2
0.257, -3.850e-2
0.258, -3.856e-2
0.259, -3.862e-2
0.260, -3.868e-2
0.261, -3.874e-2
0.262, -3.881e-2
0.263, -3.887e-2
0.264, -3.890e-2
0.265, -3.896e-2
0.266, -3.902e-2
0.267, -3.905e-2
0.268, -3.911e-2
0.269, -3.917e-2
0.270, -3.924e-2
0.271, -3.927e-2
0.272, -3.933e-2
0.273, -3.939e-2
0.274, -3.945e-2
0.275, -3.951e-2
0.276, -3.954e-2
0.277, -3.960e-2
0.278, -3.967e-2
0.279, -3.973e-2
0.280, -3.976e-2
0.281, -3.982e-2
0.282, -3.988e-2
0.283, -3.994e-2
0.284, -3.997e-2
0.285, -4.006e-2
0.286, -4.009e-2
0.287, -4.016e-2
0.288, -4.022e-2
0.289, -4.025e-2
0.290, -4.031e-2
0.291, -4.037e-2
0.292, -4.040e-2
0.293, -4.049e-2
0.294, -4.052e-2
0.295, -4.059e-2
0.296, -4.065e-2
0.297, -4.068e-2
0.298, -4.074e-2
0.299, -4.080e-2
0.300, -4.086e-2
0.301, -4.089e-2
0.302, -4.095e-2
0.303, -4.102e-2
0.304, -4.108e-2
0.305, -4.114e-2
0.306, -4.120e-2
0.307, -4.126e-2
0.308, -4.129e-2
0.309, -4.135e-2
0.310, -4.141e-2
0.311, -4.144e-2
0.312, -4.151e-2
0.313, -4.157e-2
0.314, -4.163e-2
0.315, -4.169e-2
0.316, -4.172e-2
0.317, -4.178e-2
0.318, -4.184e-2
0.319, -4.190e-2
0.320, -4.194e-2
0.321, -4.200e-2
0.322, -4.206e-2
0.323, -4.212e-2
0.324, -4.218e-2
0.325, -4.221e-2
0.326, -4.227e-2
0.327, -4.233e-2
0.328, -4.240e-2
0.329, -4.243e-2
0.330, -4.249e-2
0.331, -4.255e-2
0.332, -4.261e-2
0.333, -4.267e-2
0.334, -4.270e-2
0.335, -4.276e-2
0.336, -4.283e-2
0.337, -4.286e-2
0.338, -4.292e-2
0.339, -4.298e-2
0.340, -4.304e-2
0.341, -4.310e-2
0.342, -4.313e-2
0.343, -4.319e-2
0.344, -4.325e-2
0.345, -4.332e-2
0.346, -4.338e-2
0.347, -4.341e-2
0.348, -4.347e-2
0.349, -4.353e-2
0.350, -4.359e-2
0.351, -4.365e-2
0.352, -4.368e-2
0.353, -4.375e-2
0.354, -4.381e-2
0.355, -4.387e-2
0.356, -4.390e-2
0.357, -4.396e-2
0.358, -4.402e-2
0.359, -4.408e-2
0.360, -4.411e-2
0.361, -4.418e-2
0.362, -4.424e-2
0.363, -4.430e-2
0.364, -4.436e-2
0.365, -4.442e-2
0.366, -4.448e-2
0.367, -4.451e-2
0.368, -4.457e-2
0.369, -4.460e-2
0.370, -4.467e-2
0.371, -4.473e-2
0.372, -4.479e-2
0.373, -4.485e-2
0.374, -4.488e-2
0.375, -4.494e-2
0.376, -4.500e-2
0.377, -4.507e-2
0.378, -4.510e-2
0.379, -4.516e-2
0.380, -4.522e-2
0.381, -4.528e-2
0.382, -4.531e-2
0.383, -4.537e-2
0.384, -4.543e-2
0.385, -4.549e-2
0.386, -4.556e-2
0.387, -4.559e-2
0.388, -4.565e-2
0.389, -4.571e-2
0.390, -4.577e-2
0.391, -4.580e-2
0.392, -4.586e-2
0.393, -4.592e-2
0.394, -4.599e-2
0.395, -4.605e-2
0.396, -4.611e-2
0.397, -4.614e-2
0.398, -4.620e-2
0.399, -4.626e-2
0.400, -4.632e-2
0.401, -4.635e-2
0.402, -4.642e-2
0.403, -4.648e-2
0.404, -4.654e-2
0.405, -4.660e-2
0.406, -4.666e-2
0.407, -4.669e-2
0.408, -4.675e-2
0.409, -4.681e-2
0.410, -4.688e-2
0.411, -4.694e-2
0.412, -4.697e-2
0.413, -4.703e-2
0.414, -4.709e-2
0.415, -4.715e-2
0.416, -4.721e-2
0.417, -4.724e-2
0.418, -4.730e-2
0.419, -4.737e-2
0.420, -4.740e-2
0.421, -4.746e-2
0.422, -4.752e-2
0.423, -4.758e-2
0.424, -4.764e-2
0.425, -4.770e-2
0.426, -4.777e-2
0.427, -4.780e-2
0.428, -4.786e-2
0.429, -4.792e-2
0.430, -4.795e-2
0.431, -4.801e-2
0.432, -4.807e-2
0.433, -4.813e-2
0.434, -4.819e-2
0.435, -4.823e-2
0.436, -4.829e-2
0.437, -4.835e-2
0.438, -4.841e-2
0.439, -4.844e-2
0.440, -4.850e-2
0.441, -4.856e-2
0.442, -4.862e-2
0.443, -4.869e-2
0.444, -4.872e-2
0.445, -4.878e-2
0.446, -4.884e-2
0.447, -4.887e-2
0.448, -4.893e-2
0.449, -4.899e-2
0.450, -4.905e-2
0.451, -4.912e-2
0.452, -4.915e-2
0.453, -4.921e-2
0.454, -4.927e-2
0.455, -4.933e-2
0.456, -4.939e-2
0.457, -4.942e-2
0.458, -4.948e-2
0.459, -4.954e-2
0.460, -4.961e-2
0.461, -4.967e-2
0.462, -4.970e-2
0.463, -4.976e-2
0.464, -4.982e-2
0.465, -4.988e-2
0.466, -4.994e-2
0.467, -4.997e-2
0.468, -5.004e-2
0.469, -5.010e-2
0.470, -5.016e-2
0.471, -5.022e-2
0.472, -5.025e-2
0.473, -5.031e-2
0.474, -5.037e-2
0.475, -5.043e-2
0.476, -5.050e-2
0.477, -5.053e-2
0.478, -5.059e-2
0.479, -5.065e-2
0.480, -5.071e-2
0.481, -5.074e-2
0.482, -5.080e-2
0.483, -5.086e-2
0.484, -5.093e-2
0.485, -5.096e-2
0.486, -5.102e-2
0.487, -5.108e-2
0.488, -5.114e-2
0.489, -5.120e-2
0.490, -5.123e-2
0.491, -5.129e-2
0.492, -5.135e-2
0.493, -5.142e-2
0.494, -5.148e-2
0.495, -5.154e-2
0.496, -5.160e-2
0.497, -5.163e-2
0.498, -5.169e-2
0.499, -5.175e-2
0.500, -5.178e-2
0.501, -5.188e-2
0.502, -5.191e-2
0.503, -5.197e-2
0.504, -5.203e-2
0.505, -5.209e-2
0.506, -5.215e-2
0.507, -5.221e-2
0.508, -5.228e-2
0.509, -5.234e-2
0.510, -5.237e-2
0.511, -5.243e-2
0.512, -5.249e-2
0.513, -5.255e-2
0.514, -5.261e-2
0.515, -5.267e-2
0.516, -5.274e-2
0.517, -5.277e-2
0.518, -5.283e-2
0.519, -5.289e-2
0.520, -5.295e-2
0.521, -5.301e-2
0.522, -5.307e-2
0.523, -5.313e-2
0.524, -5.320e-2
0.525, -5.326e-2
0.526, -5.329e-2
0.527, -5.335e-2
0.528, -5.341e-2
0.529, -5.347e-2
0.530, -5.353e-2
0.531, -5.359e-2
0.532, -5.366e-2
0.533, -5.372e-2
0.534, -5.378e-2
0.535, -5.384e-2
0.536, -5.390e-2
0.537, -5.396e-2
0.538, -5.402e-2
0.539, -5.409e-2
0.540, -5.412e-2
0.541, -5.421e-2
0.542, -5.424e-2
0.543, -5.430e-2
0.544, -5.439e-2
0.545, -5.445e-2
0.546, -5.452e-2
0.547, -5.458e-2
0.548, -5.464e-2
0.549, -5.467e-2
0.550, -5.473e-2
0.551, -5.482e-2
0.552, -5.488e-2
0.553, -5.494e-2
0.554, -5.501e-2
0.555, -5.507e-2
0.556, -5.513e-2
0.557, -5.516e-2
0.558, -5.525e-2
0.559, -5.531e-2
0.560, -5.537e-2
0.561, -5.544e-2
0.562, -5.550e-2
0.563, -5.556e-2
0.564, -5.562e-2
0.565, -5.568e-2
0.566, -5.574e-2
0.567, -5.580e-2
0.568, -5.587e-2
0.569, -5.593e-2
0.570, -5.599e-2
0.571, -5.605e-2
0.572, -5.611e-2
0.573, -5.617e-2
0.574, -5.623e-2
0.575, -5.629e-2
0.576, -5.639e-2
0.577, -5.645e-2
0.578, -5.648e-2
0.579, -5.654e-2
0.580, -5.660e-2
0.581, -5.666e-2
0.582, -5.672e-2
0.583, -5.679e-2
0.584, -5.685e-2
0.585, -5.694e-2
0.586, -5.700e-2
0.587, -5.706e-2
0.588, -5.712e-2
0.589, -5.718e-2
0.590, -5.725e-2
0.591, -5.731e-2
0.592, -5.737e-2
0.593, -5.743e-2
0.594, -5.749e-2
0.595, -5.755e-2
0.596, -5.761e-2
0.597, -5.768e-2
0.598, -5.774e-2
0.599, -5.780e-2
0.600, -5.786e-2
0.601, -5.792e-2
0.602, -5.798e-2
0.603, -5.804e-2
0.604, -5.814e-2
0.605, -5.820e-2
0.606, -5.826e-2
0.607, -5.832e-2
0.608, -5.835e-2
0.609, -5.841e-2
0.610, -5.847e-2
0.611, -5.853e-2
0.612, -5.860e-2
0.613, -5.866e-2
0.614, -5.875e-2
0.615, -5.881e-2
0.616, -5.887e-2
0.617, -5.893e-2
0.618, -5.896e-2
0.619, -5.903e-2
0.620, -5.909e-2
0.621, -5.915e-2
0.622, -5.924e-2
0.623, -5.930e-2
0.624, -5.936e-2
0.625, -5.942e-2
0.626, -5.949e-2
0.627, -5.955e-2
0.628, -5.958e-2
0.629, -5.964e-2
0.630, -5.970e-2
0.631, -5.976e-2
0.632, -5.982e-2
0.633, -5.988e-2
0.634, -5.995e-2
0.635, -6.001e-2
0.636, -6.007e-2
0.637, -6.013e-2
0.638, -6.019e-2
0.639, -6.025e-2
0.640, -6.028e-2
0.641, -6.038e-2
0.642, -6.041e-2
0.643, -6.047e-2
0.644, -6.053e-2
0.645, -6.059e-2
0.646, -6.065e-2
0.647, -6.071e-2
0.648, -6.074e-2
0.649, -6.084e-2
0.650, -6.087e-2
0.651, -6.093e-2
0.652, -6.099e-2
0.653, -6.105e-2
0.654, -6.111e-2
0.655, -6.117e-2
0.656, -6.123e-2
0.657, -6.130e-2
0.658, -6.133e-2
0.659, -6.139e-2
0.660, -6.145e-2
0.661, -6.151e-2
0.662, -6.157e-2
0.663, -6.160e-2
0.664, -6.169e-2
0.665, -6.173e-2
0.666, -6.179e-2
0.667, -6.185e-2
0.668, -6.191e-2
0.669, -6.197e-2
0.670, -6.200e-2
0.671, -6.206e-2
0.672, -6.212e-2
0.673, -6.219e-2
0.674, -6.225e-2
0.675, -6.231e-2
0.676, -6.237e-2
0.677, -6.240e-2
0.678, -6.246e-2
0.679, -6.252e-2
0.680, -6.258e-2
0.681, -6.265e-2
0.682, -6.271e-2
0.683, -6.274e-2
0.684, -6.280e-2
0.685, -6.286e-2
0.686, -6.292e-2
0.687, -6.295e-2
0.688, -6.301e-2
0.689, -6.308e-2
0.690, -6.311e-2
0.691, -6.317e-2
0.692, -6.323e-2
0.693, -6.329e-2
0.694, -6.335e-2
0.695, -6.338e-2
0.696, -6.344e-2
0.697, -6.350e-2
0.698, -6.354e-2
0.699, -6.360e-2
0.700, -6.366e-2
0.701, -6.369e-2
0.702, -6.375e-2
0.703, -6.378e-2
0.704, -6.384e-2
0.705, -6.390e-2
0.706, -6.397e-2
0.707, -6.400e-2
0.708, -6.406e-2
0.709, -6.409e-2
0.710, -6.415e-2
0.711, -6.418e-2
0.712, -6.424e-2
0.713, -6.430e-2
0.714, -6.433e-2
0.715, -6.439e-2
0.716, -6.446e-2
0.717, -6.449e-2
0.718, -6.455e-2
0.719, -6.458e-2
0.720, -6.464e-2
0.721, -6.467e-2
0.722, -6.473e-2
0.723, -6.476e-2
0.724, -6.482e-2
0.725, -6.489e-2
0.726, -6.492e-2
0.727, -6.495e-2
0.728, -6.501e-2
0.729, -6.504e-2
0.730, -6.510e-2
0.731, -6.513e-2
0.732, -6.519e-2
0.733, -6.522e-2
0.734, -6.528e-2
0.735, -6.535e-2
0.736, -6.538e-2
0.737, -6.541e-2
0.738, -6.544e-2
0.739, -6.550e-2
0.740, -6.553e-2
0.741, -6.559e-2
0.742, -6.565e-2
0.743, -6.568e-2
0.744, -6.571e-2
0.745, -6.578e-2
0.746, -6.581e-2
0.747, -6.587e-2
0.748, -6.590e-2
0.749, -6.593e-2
0.750, -6.599e-2
0.751, -6.602e-2
0.752, -6.605e-2
0.753, -6.611e-2
0.754, -6.614e-2
0.755, -6.620e-2
0.756, -6.624e-2
0.757, -6.630e-2
0.758, -6.633e-2
0.759, -6.636e-2
0.760, -6.642e-2
0.761, -6.645e-2
0.762, -6.651e-2
0.763, -6.654e-2
0.764, -6.657e-2
0.765, -6.663e-2
0.766, -6.667e-2
0.767, -6.673e-2
0.768, -6.676e-2
0.769, -6.679e-2
0.770, -6.685e-2
0.771, -6.688e-2
0.772, -6.694e-2
0.773, -6.697e-2
0.774, -6.703e-2
0.775, -6.706e-2
0.776, -6.713e-2
0.777, -6.716e-2
0.778, -6.719e-2
0.779, -6.722e-2
0.780, -6.728e-2
0.781, -6.731e-2
0.782, -6.734e-2
0.783, -6.740e-2
0.784, -6.746e-2
0.785, -6.749e-2
0.786, -6.752e-2
0.787, -6.759e-2
0.788, -6.762e-2
0.789, -6.765e-2
0.790, -6.771e-2
0.791, -6.774e-2
0.792, -6.777e-2
0.793, -6.783e-2
0.794, -6.786e-2
0.795, -6.792e-2
0.796, -6.795e-2
0.797, -6.802e-2
0.798, -6.805e-2
0.799, -6.811e-2
0.800, -6.808e-2
0.799, -6.768e-2
0.798, -6.728e-2
0.797, -6.691e-2
0.796, -6.654e-2
0.795, -6.624e-2
0.794, -6.593e-2
0.793, -6.559e-2
0.792, -6.528e-2
0.791, -6.498e-2
0.790, -6.470e-2
0.789, -6.443e-2
0.788, -6.415e-2
0.787, -6.387e-2
0.786, -6.360e-2
0.785, -6.332e-2
0.784, -6.308e-2
0.783, -6.283e-2
0.782, -6.255e-2
0.781, -6.231e-2
0.780, -6.206e-2
0.779, -6.182e-2
0.778, -6.157e-2
0.777, -6.133e-2
0.776, -6.111e-2
0.775, -6.087e-2
0.774, -6.062e-2
0.773, -6.041e-2
0.772, -6.016e-2
0.771, -5.995e-2
0.770, -5.970e-2
0.769, -5.949e-2
0.768, -5.927e-2
0.767, -5.906e-2
0.766, -5.881e-2
0.765, -5.860e-2
0.764, -5.838e-2
0.763, -5.817e-2
0.762, -5.795e-2
0.761, -5.774e-2
0.760, -5.755e-2
0.759, -5.734e-2
0.758, -5.712e-2
0.757, -5.694e-2
0.756, -5.672e-2
0.755, -5.651e-2
0.754, -5.633e-2
0.753, -5.614e-2
0.752, -5.593e-2
0.751, -5.571e-2
0.750, -5.553e-2
0.749, -5.534e-2
0.748, -5.513e-2
0.747, -5.494e-2
0.746, -5.476e-2
0.745, -5.455e-2
0.744, -5.436e-2
0.743, -5.418e-2
0.742, -5.399e-2
0.741, -5.381e-2
0.740, -5.363e-2
0.739, -5.344e-2
0.738, -5.326e-2
0.737, -5.307e-2
0.736, -5.289e-2
0.735, -5.270e-2
0.734, -5.252e-2
0.733, -5.234e-2
0.732, -5.215e-2
0.731, -5.197e-2
0.730, -5.182e-2
0.729, -5.163e-2
0.728, -5.145e-2
0.727, -5.129e-2
0.726, -5.111e-2
0.725, -5.093e-2
0.724, -5.077e-2
0.723, -5.059e-2
0.722, -5.043e-2
0.721, -5.025e-2
0.720, -5.010e-2
0.719, -4.991e-2
0.718, -4.976e-2
0.717, -4.958e-2
0.716, -4.942e-2
0.715, -4.927e-2
0.714, -4.908e-2
0.713, -4.893e-2
0.712, -4.875e-2
0.711, -4.859e-2
0.710, -4.844e-2
0.709, -4.826e-2
0.708, -4.810e-2
0.707, -4.795e-2
0.706, -4.780e-2
0.705, -4.764e-2
0.704, -4.746e-2
0.703, -4.730e-2
0.702, -4.715e-2
0.701, -4.700e-2
0.700, -4.681e-2
0.699, -4.666e-2
0.698, -4.651e-2
0.697, -4.635e-2
0.696, -4.620e-2
0.695, -4.605e-2
0.694, -4.589e-2
0.693, -4.574e-2
0.692, -4.559e-2
0.691, -4.543e-2
0.690, -4.528e-2
0.689, -4.513e-2
0.688, -4.497e-2
0.687, -4.485e-2
0.686, -4.470e-2
0.685, -4.454e-2
0.684, -4.439e-2
0.683, -4.424e-2
0.682, -4.408e-2
0.681, -4.393e-2
0.680, -4.378e-2
0.679, -4.362e-2
0.678, -4.350e-2
0.677, -4.335e-2
0.676, -4.319e-2
0.675, -4.307e-2
0.674, -4.292e-2
0.673, -4.276e-2
0.672, -4.261e-2
0.671, -4.246e-2
0.670, -4.233e-2
0.669, -4.218e-2
0.668, -4.203e-2
0.667, -4.190e-2
0.666, -4.175e-2
0.665, -4.160e-2
0.664, -4.148e-2
0.663, -4.132e-2
0.662, -4.120e-2
0.661, -4.105e-2
0.660, -4.089e-2
0.659, -4.077e-2
0.658, -4.062e-2
0.657, -4.049e-2
0.656, -4.034e-2
0.655, -4.022e-2
0.654, -4.006e-2
0.653, -3.994e-2
0.652, -3.979e-2
0.651, -3.967e-2
0.650, -3.951e-2
0.649, -3.939e-2
0.648, -3.924e-2
0.647, -3.911e-2
0.646, -3.899e-2
0.645, -3.884e-2
0.644, -3.871e-2
0.643, -3.856e-2
0.642, -3.844e-2
0.641, -3.828e-2
0.640, -3.816e-2
0.639, -3.801e-2
0.638, -3.789e-2
0.637, -3.776e-2
0.636, -3.764e-2
0.635, -3.749e-2
0.634, -3.736e-2
0.633, -3.724e-2
0.632, -3.709e-2
0.631, -3.697e-2
0.630, -3.684e-2
0.629, -3.669e-2
0.628, -3.657e-2
0.627, -3.644e-2
0.626, -3.632e-2
0.625, -3.617e-2
0.624, -3.604e-2
0.623, -3.592e-2
0.622, -3.580e-2
0.621, -3.565e-2
0.620, -3.552e-2
0.619, -3.540e-2
0.618, -3.528e-2
0.617, -3.515e-2
0.616, -3.500e-2
0.615, -3.488e-2
0.614, -3.476e-2
0.613, -3.463e-2
0.612, -3.451e-2
0.611, -3.439e-2
0.610, -3.423e-2
0.609, -3.411e-2
0.608, -3.399e-2
0.607, -3.387e-2
0.606, -3.374e-2
0.605, -3.362e-2
0.604, -3.350e-2
0.603, -3.338e-2
0.602, -3.322e-2
0.601, -3.310e-2
0.600, -3.298e-2
0.599, -3.285e-2
0.598, -3.273e-2
0.597, -3.261e-2
0.596, -3.249e-2
0.595, -3.236e-2
0.594, -3.224e-2
0.593, -3.212e-2
0.592, -3.199e-2
0.591, -3.187e-2
0.590, -3.172e-2
0.589, -3.163e-2
0.588, -3.150e-2
0.587, -3.138e-2
0.586, -3.123e-2
0.585, -3.114e-2
0.584, -3.101e-2
0.583, -3.089e-2
0.582, -3.074e-2
0.581, -3.061e-2
0.580, -3.049e-2
0.579, -3.037e-2
0.578, -3.025e-2
0.577, -3.015e-2
0.576, -3.003e-2
0.575, -2.991e-2
0.574, -2.979e-2
0.573, -2.966e-2
0.572, -2.954e-2
0.571, -2.942e-2
0.570, -2.929e-2
0.569, -2.917e-2
0.568, -2.905e-2
0.567, -2.893e-2
0.566, -2.880e-2
0.565, -2.868e-2
0.564, -2.859e-2
0.563, -2.844e-2
0.562, -2.834e-2
0.561, -2.822e-2
0.560, -2.810e-2
0.559, -2.798e-2
0.558, -2.785e-2
0.557, -2.773e-2
0.556, -2.761e-2
0.555, -2.748e-2
0.554, -2.739e-2
0.553, -2.727e-2
0.552, -2.715e-2
0.551, -2.702e-2
0.550, -2.690e-2
0.549, -2.678e-2
0.548, -2.666e-2
0.547, -2.656e-2
0.546, -2.644e-2
0.545, -2.632e-2
0.544, -2.620e-2
0.543, -2.607e-2
0.542, -2.595e-2
0.541, -2.583e-2
0.540, -2.570e-2
0.539, -2.561e-2
0.538, -2.549e-2
0.537, -2.537e-2
0.536, -2.528e-2
0.535, -2.515e-2
0.534, -2.506e-2
0.533, -2.491e-2
0.532, -2.482e-2
0.531, -2.469e-2
0.530, -2.457e-2
0.529, -2.445e-2
0.528, -2.435e-2
0.527, -2.423e-2
0.526, -2.414e-2
0.525, -2.402e-2
0.524, -2.389e-2
0.523, -2.377e-2
0.522, -2.368e-2
0.521, -2.356e-2
0.520, -2.343e-2
0.519, -2.331e-2
0.518, -2.322e-2
0.517, -2.310e-2
0.516, -2.300e-2
0.515, -2.288e-2
0.514, -2.276e-2
0.513, -2.264e-2
0.512, -2.254e-2
0.511, -2.242e-2
0.510, -2.230e-2
0.509, -2.221e-2
0.508, -2.208e-2
0.507, -2.199e-2
0.506, -2.187e-2
0.505, -2.175e-2
0.504, -2.165e-2
0.503, -2.153e-2
0.502, -2.144e-2
0.501, -2.132e-2
0.500, -2.123e-2
0.499, -2.110e-2
0.498, -2.101e-2
0.497, -2.089e-2
0.496, -2.080e-2
0.495, -2.067e-2
0.494, -2.058e-2
0.493, -2.046e-2
0.492, -2.037e-2
0.491, -2.024e-2
0.490, -2.012e-2
0.489, -2.003e-2
0.488, -1.994e-2
0.487, -1.981e-2
0.486, -1.972e-2
0.485, -1.963e-2
0.484, -1.951e-2
0.483, -1.938e-2
0.482, -1.929e-2
0.481, -1.920e-2
0.480, -1.911e-2
0.479, -1.899e-2
0.478, -1.889e-2
0.477, -1.880e-2
0.476, -1.868e-2
0.475, -1.859e-2
0.474, -1.849e-2
0.473, -1.837e-2
0.472, -1.828e-2
0.471, -1.819e-2
0.470, -1.807e-2
0.469, -1.797e-2
0.468, -1.785e-2
0.467, -1.776e-2
0.466, -1.767e-2
0.465, -1.757e-2
0.464, -1.745e-2
0.463, -1.736e-2
0.462, -1.727e-2
0.461, -1.718e-2
0.460, -1.705e-2
0.459, -1.696e-2
0.458, -1.687e-2
0.457, -1.678e-2
0.456, -1.668e-2
0.455, -1.656e-2
0.454, -1.647e-2
0.453, -1.638e-2
0.452, -1.629e-2
0.451, -1.619e-2
0.450, -1.607e-2
0.449, -1.598e-2
0.448, -1.589e-2
0.447, -1.579e-2
0.446, -1.570e-2
0.445, -1.561e-2
0.444, -1.552e-2
0.443, -1.543e-2
0.442, -1.530e-2
0.441, -1.521e-2
0.440, -1.512e-2
0.439, -1.503e-2
0.438, -1.494e-2
0.437, -1.484e-2
0.436, -1.475e-2
0.435, -1.466e-2
0.434, -1.457e-2
0.433, -1.448e-2
0.432, -1.438e-2
0.431, -1.426e-2
0.430, -1.420e-2
0.429, -1.408e-2
0.428, -1.402e-2
0.427, -1.392e-2
0.426, -1.383e-2
0.425, -1.374e-2
0.424, -1.365e-2
0.423, -1.355e-2
0.422, -1.346e-2
0.421, -1.337e-2
0.420, -1.328e-2
0.419, -1.319e-2
0.418, -1.309e-2
0.417, -1.303e-2
0.416, -1.294e-2
0.415, -1.285e-2
0.414, -1.276e-2
0.413, -1.267e-2
0.412, -1.257e-2
0.411, -1.248e-2
0.410, -1.242e-2
0.409, -1.230e-2
0.408, -1.224e-2
0.407, -1.214e-2
0.406, -1.205e-2
0.405, -1.196e-2
0.404, -1.187e-2
0.403, -1.181e-2
0.402, -1.171e-2
0.401, -1.162e-2
0.400, -1.153e-2
0.399, -1.144e-2
0.398, -1.138e-2
0.397, -1.128e-2
0.396, -1.122e-2
0.395, -1.113e-2
0.394, -1.104e-2
0.393, -1.095e-2
0.392, -1.085e-2
0.391, -1.079e-2
0.390, -1.070e-2
0.389, -1.061e-2
0.388, -1.052e-2
0.387, -1.046e-2
0.386, -1.036e-2
0.385, -1.027e-2
0.384, -1.021e-2
0.383, -1.012e-2
0.382, -1.003e-2
0.381, -9.965e-3
0.380, -9.873e-3
0.379, -9.781e-3
0.378, -9.720e-3
0.377, -9.628e-3
0.376, -9.536e-3
0.375, -9.474e-3
0.374, -9.382e-3
0.373, -9.321e-3
0.372, -9.229e-3
0.371, -9.137e-3
0.370, -9.075e-3
0.369, -8.983e-3
0.368, -8.891e-3
0.367, -8.830e-3
0.366, -8.738e-3
0.365, -8.677e-3
0.364, -8.585e-3
0.363, -8.523e-3
0.362, -8.431e-3
0.361, -8.339e-3
0.360, -8.278e-3
0.359, -8.186e-3
0.358, -8.094e-3
0.357, -8.032e-3
0.356, -7.971e-3
0.355, -7.879e-3
0.354, -7.787e-3
0.353, -7.725e-3
0.352, -7.633e-3
0.351, -7.572e-3
0.350, -7.480e-3
0.349, -7.388e-3
0.348, -7.327e-3
0.347, -7.265e-3
0.346, -7.173e-3
0.345, -7.081e-3
0.344, -7.020e-3
0.343, -6.928e-3
0.342, -6.866e-3
0.341, -6.774e-3
0.340, -6.713e-3
0.339, -6.621e-3
0.338, -6.529e-3
0.337, -6.467e-3
0.336, -6.406e-3
0.335, -6.314e-3
0.334, -6.222e-3
0.333, -6.161e-3
0.332, -6.099e-3
0.331, -6.007e-3
0.330, -5.946e-3
0.329, -5.854e-3
0.328, -5.762e-3
0.327, -5.700e-3
0.326, -5.639e-3
0.325, -5.547e-3
0.324, -5.486e-3
0.323, -5.394e-3
0.322, -5.332e-3
0.321, -5.240e-3
0.320, -5.179e-3
0.319, -5.087e-3
0.318, -5.025e-3
0.317, -4.933e-3
0.316, -4.872e-3
0.315, -4.811e-3
0.314, -4.719e-3
0.313, -4.627e-3
0.312, -4.565e-3
0.311, -4.504e-3
0.310, -4.412e-3
0.309, -4.350e-3
0.308, -4.258e-3
0.307, -4.197e-3
0.306, -4.105e-3
0.305, -4.044e-3
0.304, -3.982e-3
0.303, -3.890e-3
0.302, -3.798e-3
0.301, -3.737e-3
0.300, -3.675e-3
0.299, -3.583e-3
0.298, -3.522e-3
0.297, -3.461e-3
0.296, -3.369e-3
0.295, -3.307e-3
0.294, -3.215e-3
0.293, -3.154e-3
0.292, -3.062e-3
0.291, -3.000e-3
0.290, -2.939e-3
0.289, -2.847e-3
0.288, -2.786e-3
0.287, -2.694e-3
0.286, -2.632e-3
0.285, -2.571e-3
0.284, -2.479e-3
0.283, -2.417e-3
0.282, -2.325e-3
0.281, -2.264e-3
0.280, -2.172e-3
0.279, -2.111e-3
0.278, -2.049e-3
0.277, -1.988e-3
0.276, -1.896e-3
0.275, -1.835e-3
0.274, -1.742e-3
0.273, -1.681e-3
0.272, -1.589e-3
0.271, -1.528e-3
0.270, -1.466e-3
0.269, -1.374e-3
0.268, -1.313e-3
0.267, -1.252e-3
0.266, -1.190e-3
0.265, -1.098e-3
0.264, -1.037e-3
0.263, -9.448e-4
0.262, -8.834e-4
0.261, -7.913e-4
0.260, -7.300e-4
0.259, -6.686e-4
0.258, -5.766e-4
0.257, -5.152e-4
0.256, -4.538e-4
0.255, -3.618e-4
0.254, -3.004e-4
0.253, -2.084e-4
0.252, -1.470e-4
0.251, -8.566e-5
0.250, 6.382e-6
0.249, 6.775e-5
0.248, 1.291e-4
0.247, 1.905e-4
0.246, 2.825e-4
0.245, 3.439e-4
0.244, 4.052e-4
0.243, 4.973e-4
0.242, 5.587e-4
0.241, 6.200e-4
0.240, 7.121e-4
0.239, 7.734e-4
0.238, 8.655e-4
0.237, 9.268e-4
0.236, 9.882e-4
0.235, 1.050e-3
0.234, 1.142e-3
0.233, 1.203e-3
0.232, 1.264e-3
0.231, 1.356e-3
0.230, 1.418e-3
0.229, 1.479e-3
0.228, 1.540e-3
0.227, 1.633e-3
0.226, 1.694e-3
0.225, 1.755e-3
0.224, 1.847e-3
0.223, 1.909e-3
0.222, 1.970e-3
0.221, 2.031e-3
0.220, 2.093e-3
0.219, 2.185e-3
0.218, 2.246e-3
0.217, 2.308e-3
0.216, 2.369e-3
0.215, 2.461e-3
0.214, 2.522e-3
0.213, 2.584e-3
0.212, 2.645e-3
0.211, 2.706e-3
0.210, 2.798e-3
0.209, 2.860e-3
0.208, 2.921e-3
0.207, 2.983e-3
0.206, 3.075e-3
0.205, 3.136e-3
0.204, 3.197e-3
0.203, 3.289e-3
0.202, 3.320e-3
0.201, 3.412e-3
0.200, 3.473e-3
0.199, 3.535e-3
0.198, 3.596e-3
0.197, 3.688e-3
0.196, 3.750e-3
0.195, 3.780e-3
0.194, 3.872e-3
0.193, 3.934e-3
0.192, 4.026e-3
0.191, 4.087e-3
0.190, 4.148e-3
0.189, 4.210e-3
0.188, 4.302e-3
0.187, 4.363e-3
0.186, 4.425e-3
0.185, 4.486e-3
0.184, 4.547e-3
0.183, 4.609e-3
0.182, 4.670e-3
0.181, 4.762e-3
0.180, 4.793e-3
0.179, 4.885e-3
0.178, 4.946e-3
0.177, 5.008e-3
0.176, 5.069e-3
0.175, 5.130e-3
0.174, 5.192e-3
0.173, 5.253e-3
0.172, 5.345e-3
0.171, 5.406e-3
0.170, 5.468e-3
0.169, 5.529e-3
0.168, 5.590e-3
0.167, 5.652e-3
0.166, 5.713e-3
0.165, 5.775e-3
0.164, 5.836e-3
0.163, 5.928e-3
0.162, 5.959e-3
0.161, 6.051e-3
0.160, 6.112e-3
0.159, 6.173e-3
0.158, 6.235e-3
0.157, 6.296e-3
0.156, 6.358e-3
0.155, 6.419e-3
0.154, 6.480e-3
0.153, 6.542e-3
0.152, 6.603e-3
0.151, 6.664e-3
0.150, 6.726e-3
0.149, 6.787e-3
0.148, 6.848e-3
0.147, 6.910e-3
0.146, 6.971e-3
0.145, 7.033e-3
0.144, 7.094e-3
0.143, 7.155e-3
0.142, 7.217e-3
0.141, 7.278e-3
0.140, 7.370e-3
0.139, 7.431e-3
0.138, 7.493e-3
0.137, 7.554e-3
0.136, 7.615e-3
0.135, 7.677e-3
0.134, 7.738e-3
0.133, 7.800e-3
0.132, 7.861e-3
0.131, 7.953e-3
0.130, 8.014e-3
0.129, 8.076e-3
0.128, 8.137e-3
0.127, 8.198e-3
0.126, 8.260e-3
0.125, 8.321e-3
0.124, 8.383e-3
0.123, 8.444e-3
0.122, 8.505e-3
0.121, 8.567e-3
0.120, 8.628e-3
0.119, 8.689e-3
0.118, 8.751e-3
0.117, 8.812e-3
0.116, 8.873e-3
0.115, 8.935e-3
0.114, 8.996e-3
0.113, 9.058e-3
0.112, 9.119e-3
0.111, 9.180e-3
0.110, 9.242e-3
0.109, 9.303e-3
0.108, 9.364e-3
0.107, 9.426e-3
0.106, 9.487e-3
0.105, 9.548e-3
0.104, 9.579e-3
0.103, 9.671e-3
0.102, 9.733e-3
0.101, 9.794e-3
0.100, 9.855e-3
0.099, 9.917e-3
0.098, 9.978e-3
0.097, 1.004e-2
0.096, 1.010e-2
0.095, 1.013e-2
0.094, 1.019e-2
0.093, 1.025e-2
0.092, 1.035e-2
0.091, 1.038e-2
0.090, 1.044e-2
0.089, 1.050e-2
0.088, 1.056e-2
0.087, 1.062e-2
0.086, 1.068e-2
0.085, 1.075e-2
0.084, 1.081e-2
0.083, 1.087e-2
0.082, 1.093e-2
0.081, 1.099e-2
0.080, 1.105e-2
0.079, 1.111e-2
0.078, 1.117e-2
0.077, 1.124e-2
0.076, 1.130e-2
0.075, 1.136e-2
0.074, 1.139e-2
0.073, 1.148e-2
0.072, 1.154e-2
0.071, 1.160e-2
0.070, 1.167e-2
0.069, 1.173e-2
0.068, 1.179e-2
0.067, 1.185e-2
0.066, 1.191e-2
0.065, 1.194e-2
0.064, 1.200e-2
0.063, 1.206e-2
0.062, 1.213e-2
0.061, 1.219e-2
0.060, 1.225e-2
0.059, 1.231e-2
0.058, 1.237e-2
0.057, 1.240e-2
0.056, 1.246e-2
0.055, 1.252e-2
0.054, 1.259e-2
0.053, 1.265e-2
0.052, 1.271e-2
0.051, 1.277e-2
0.050, 1.283e-2
0.049, 1.289e-2
0.048, 1.295e-2
0.047, 1.302e-2
0.046, 1.308e-2
0.045, 1.314e-2
0.044, 1.317e-2
0.043, 1.326e-2
0.042, 1.332e-2
0.041, 1.335e-2
0.040, 1.341e-2
0.039, 1.348e-2
0.038, 1.354e-2
0.037, 1.360e-2
0.036, 1.366e-2
0.035, 1.372e-2
0.034, 1.378e-2
0.033, 1.384e-2
0.032, 1.391e-2
0.031, 1.397e-2
0.030, 1.403e-2
0.029, 1.409e-2
0.028, 1.415e-2
0.027, 1.418e-2
0.026, 1.424e-2
0.025, 1.430e-2
0.024, 1.437e-2
0.023, 1.443e-2
0.022, 1.449e-2
0.021, 1.455e-2
0.020, 1.461e-2
0.019, 1.467e-2
0.018, 1.473e-2
0.017, 1.476e-2
0.016, 1.483e-2
0.015, 1.489e-2
0.014, 1.495e-2
0.013, 1.501e-2
0.012, 1.507e-2
0.011, 1.513e-2
0.010, 1.519e-2
0.009, 1.526e-2
0.008, 1.532e-2
0.007, 1.538e-2
0.006, 1.541e-2
0.005, 1.547e-2
0.004, 1.553e-2
0.003, 1.559e-2
0.002, 1.565e-2
0.001, 1.572e-2
0.000, 1.578e-2
-0.001, 1.584e-2
-0.002, 1.590e-2
-0.003, 1.596e-2
-0.004, 1.602e-2
-0.005, 1.605e-2
-0.006, 1.611e-2
-0.007, 1.618e-2
-0.008, 1.624e-2
-0.009, 1.630e-2
-0.010, 1.636e-2
-0.011, 1.642e-2
-0.012, 1.648e-2
-0.013, 1.654e-2
-0.014, 1.661e-2
-0.015, 1.664e-2
-0.016, 1.670e-2
-0.017, 1.676e-2
-0.018, 1.682e-2
-0.019, 1.688e-2
-0.020, 1.694e-2
-0.021, 1.700e-2
-0.022, 1.707e-2
-0.023, 1.713e-2
-0.024, 1.716e-2
-0.025, 1.722e-2
-0.026, 1.728e-2
-0.027, 1.734e-2
-0.028, 1.740e-2
-0.029, 1.746e-2
-0.030, 1.753e-2
-0.031, 1.756e-2
-0.032, 1.765e-2
-0.033, 1.768e-2
-0.034, 1.774e-2
-0.035, 1.780e-2
-0.036, 1.786e-2
-0.037, 1.792e-2
-0.038, 1.799e-2
-0.039, 1.805e-2
-0.040, 1.808e-2
-0.041, 1.814e-2
-0.042, 1.820e-2
-0.043, 1.826e-2
-0.044, 1.832e-2
-0.045, 1.838e-2
-0.046, 1.842e-2
-0.047, 1.848e-2
-0.048, 1.854e-2
-0.049, 1.860e-2
-0.050, 1.866e-2
-0.051, 1.872e-2
-0.052, 1.878e-2
-0.053, 1.884e-2
-0.054, 1.888e-2
-0.055, 1.894e-2
-0.056, 1.900e-2
-0.057, 1.906e-2
-0.058, 1.912e-2
-0.059, 1.918e-2
-0.060, 1.921e-2
-0.061, 1.927e-2
-0.062, 1.934e-2
-0.063, 1.940e-2
-0.064, 1.946e-2
-0.065, 1.949e-2
-0.066, 1.955e-2
-0.067, 1.961e-2
-0.068, 1.967e-2
-0.069, 1.973e-2
-0.070, 1.980e-2
-0.071, 1.986e-2
-0.072, 1.989e-2
-0.073, 1.995e-2
-0.074, 2.001e-2
-0.075, 2.007e-2
-0.076, 2.013e-2
-0.077, 2.019e-2
-0.078, 2.026e-2
-0.079, 2.032e-2
-0.080, 2.038e-2
-0.081, 2.041e-2
-0.082, 2.047e-2
-0.083, 2.053e-2
-0.084, 2.059e-2
-0.085, 2.062e-2
-0.086, 2.069e-2
-0.087, 2.075e-2
-0.088, 2.081e-2
-0.089, 2.087e-2
-0.090, 2.093e-2
-0.091, 2.099e-2
-0.092, 2.102e-2
-0.093, 2.108e-2
-0.094, 2.115e-2
-0.095, 2.121e-2
-0.096, 2.124e-2
-0.097, 2.130e-2
-0.098, 2.136e-2
-0.099, 2.142e-2
-0.100, 2.148e-2
-0.101, 2.154e-2
-0.102, 2.158e-2
-0.103, 2.164e-2
-0.104, 2.170e-2
-0.105, 2.176e-2
-0.106, 2.182e-2
-0.107, 2.185e-2
-0.108, 2.191e-2
-0.109, 2.197e-2
-0.110, 2.204e-2
-0.111, 2.210e-2
-0.112, 2.213e-2
-0.113, 2.219e-2
-0.114, 2.225e-2
-0.115, 2.231e-2
-0.116, 2.237e-2
-0.117, 2.240e-2
-0.118, 2.247e-2
-0.119, 2.253e-2
-0.120, 2.259e-2
-0.121, 2.265e-2
-0.122, 2.271e-2
-0.123, 2.274e-2
-0.124, 2.280e-2
-0.125, 2.286e-2
-0.126, 2.293e-2
-0.127, 2.296e-2
-0.128, 2.302e-2
-0.129, 2.308e-2
-0.130, 2.314e-2
-0.131, 2.320e-2
-0.132, 2.326e-2
-0.133, 2.329e-2
-0.134, 2.336e-2
-0.135, 2.342e-2
-0.136, 2.348e-2
-0.137, 2.351e-2
-0.138, 2.357e-2
-0.139, 2.363e-2
-0.140, 2.369e-2
-0.141, 2.375e-2
-0.142, 2.378e-2
-0.143, 2.385e-2
-0.144, 2.391e-2
-0.145, 2.397e-2
-0.146, 2.400e-2
-0.147, 2.406e-2
-0.148, 2.412e-2
-0.149, 2.418e-2
-0.150, 2.424e-2
-0.151, 2.431e-2
-0.152, 2.437e-2
-0.153, 2.440e-2
-0.154, 2.446e-2
-0.155, 2.452e-2
-0.156, 2.458e-2
-0.157, 2.461e-2
-0.158, 2.467e-2
-0.159, 2.474e-2
-0.160, 2.480e-2
-0.161, 2.486e-2
-0.162, 2.489e-2
-0.163, 2.495e-2
-0.164, 2.501e-2
-0.165, 2.507e-2
-0.166, 2.510e-2
-0.167, 2.517e-2
-0.168, 2.523e-2
-0.169, 2.529e-2
-0.170, 2.535e-2
-0.171, 2.538e-2
-0.172, 2.544e-2
-0.173, 2.550e-2
-0.174, 2.556e-2
-0.175, 2.559e-2
-0.176, 2.566e-2
-0.177, 2.572e-2
-0.178, 2.578e-2
-0.179, 2.584e-2
-0.180, 2.587e-2
-0.181, 2.593e-2
-0.182, 2.599e-2
-0.183, 2.602e-2
-0.184, 2.609e-2
-0.185, 2.615e-2
-0.186, 2.618e-2
-0.187, 2.624e-2
-0.188, 2.630e-2
-0.189, 2.636e-2
-0.190, 2.642e-2
-0.191, 2.645e-2
-0.192, 2.652e-2
-0.193, 2.658e-2
-0.194, 2.664e-2
-0.195, 2.667e-2
-0.196, 2.673e-2
-0.197, 2.679e-2
-0.198, 2.685e-2
-0.199, 2.691e-2
-0.200, 2.694e-2
-0.201, 2.701e-2
-0.202, 2.707e-2
-0.203, 2.713e-2
-0.204, 2.716e-2
-0.205, 2.722e-2
-0.206, 2.728e-2
-0.207, 2.734e-2
-0.208, 2.737e-2
-0.209, 2.744e-2
-0.210, 2.750e-2
-0.211, 2.756e-2
-0.212, 2.759e-2
-0.213, 2.765e-2
-0.214, 2.771e-2
-0.215, 2.777e-2
-0.216, 2.780e-2
-0.217, 2.787e-2
-0.218, 2.793e-2
-0.219, 2.796e-2
-0.220, 2.802e-2
-0.221, 2.808e-2
-0.222, 2.814e-2
-0.223, 2.820e-2
-0.224, 2.823e-2
-0.225, 2.829e-2
-0.226, 2.836e-2
-0.227, 2.839e-2
-0.228, 2.845e-2
-0.229, 2.851e-2
-0.230, 2.857e-2
-0.231, 2.860e-2
-0.232, 2.866e-2
-0.233, 2.872e-2
-0.234, 2.879e-2
-0.235, 2.882e-2
-0.236, 2.888e-2
-0.237, 2.894e-2
-0.238, 2.900e-2
-0.239, 2.906e-2
-0.240, 2.909e-2
-0.241, 2.915e-2
-0.242, 2.922e-2
-0.243, 2.925e-2
-0.244, 2.931e-2
-0.245, 2.937e-2
-0.246, 2.943e-2
-0.247, 2.946e-2
-0.248, 2.952e-2
-0.249, 2.958e-2
-0.250, 2.964e-2
-0.251, 2.971e-2
-0.252, 2.974e-2
-0.253, 2.980e-2
-0.254, 2.986e-2
-0.255, 2.989e-2
-0.256, 2.995e-2
-0.257, 3.001e-2
-0.258, 3.004e-2
-0.259, 3.011e-2
-0.260, 3.017e-2
-0.261, 3.020e-2
-0.262, 3.026e-2
-0.263, 3.032e-2
-0.264, 3.038e-2
-0.265, 3.044e-2
-0.266, 3.047e-2
-0.267, 3.053e-2
-0.268, 3.060e-2
-0.269, 3.066e-2
-0.270, 3.069e-2
-0.271, 3.075e-2
-0.272, 3.081e-2
-0.273, 3.084e-2
-0.274, 3.090e-2
-0.275, 3.096e-2
-0.276, 3.099e-2
-0.277, 3.106e-2
-0.278, 3.112e-2
-0.279, 3.118e-2
-0.280, 3.124e-2
-0.281, 3.130e-2
-0.282, 3.133e-2
-0.283, 3.139e-2
-0.284, 3.146e-2
-0.285, 3.149e-2
-0.286, 3.155e-2
-0.287, 3.158e-2
-0.288, 3.164e-2
-0.289, 3.170e-2
-0.290, 3.176e-2
-0.291, 3.182e-2
-0.292, 3.185e-2
-0.293, 3.192e-2
-0.294, 3.198e-2
-0.295, 3.201e-2
-0.296, 3.207e-2
-0.297, 3.213e-2
-0.298, 3.219e-2
-0.299, 3.225e-2
-0.300, 3.228e-2
-0.301, 3.234e-2
-0.302, 3.241e-2
-0.303, 3.247e-2
-0.304, 3.250e-2
-0.305, 3.256e-2
-0.306, 3.262e-2
-0.307, 3.265e-2
-0.308, 3.271e-2
-0.309, 3.277e-2
-0.310, 3.284e-2
-0.311, 3.290e-2
-0.312, 3.293e-2
-0.313, 3.299e-2
-0.314, 3.305e-2
-0.315, 3.308e-2
-0.316, 3.314e-2
-0.317, 3.320e-2
-0.318, 3.327e-2
-0.319, 3.330e-2
-0.320, 3.336e-2
-0.321, 3.342e-2
-0.322, 3.348e-2
-0.323, 3.351e-2
-0.324, 3.357e-2
-0.325, 3.360e-2
-0.326, 3.366e-2
-0.327, 3.373e-2
-0.328, 3.379e-2
-0.329, 3.385e-2
-0.330, 3.388e-2
-0.331, 3.394e-2
-0.332, 3.397e-2
-0.333, 3.406e-2
-0.334, 3.409e-2
-0.335, 3.416e-2
-0.336, 3.419e-2
-0.337, 3.425e-2
-0.338, 3.431e-2
-0.339, 3.437e-2
-0.340, 3.440e-2
-0.341, 3.446e-2
-0.342, 3.452e-2
-0.343, 3.458e-2
-0.344, 3.462e-2
-0.345, 3.468e-2
-0.346, 3.474e-2
-0.347, 3.477e-2
-0.348, 3.483e-2
-0.349, 3.489e-2
-0.350, 3.495e-2
-0.351, 3.501e-2
-0.352, 3.504e-2
-0.353, 3.511e-2
-0.354, 3.517e-2
-0.355, 3.520e-2
-0.356, 3.526e-2
-0.357, 3.532e-2
-0.358, 3.538e-2
-0.359, 3.544e-2
-0.360, 3.547e-2
-0.361, 3.554e-2
-0.362, 3.560e-2
-0.363, 3.563e-2
-0.364, 3.569e-2
-0.365, 3.575e-2
-0.366, 3.581e-2
-0.367, 3.584e-2
-0.368, 3.590e-2
-0.369, 3.597e-2
-0.370, 3.600e-2
-0.371, 3.606e-2
-0.372, 3.612e-2
-0.373, 3.618e-2
-0.374, 3.621e-2
-0.375, 3.627e-2
-0.376, 3.630e-2
-0.377, 3.639e-2
-0.378, 3.643e-2
-0.379, 3.649e-2
-0.380, 3.655e-2
-0.381, 3.661e-2
-0.382, 3.664e-2
-0.383, 3.670e-2
-0.384, 3.673e-2
-0.385, 3.679e-2
-0.386, 3.686e-2
-0.387, 3.692e-2
-0.388, 3.698e-2
-0.389, 3.701e-2
-0.390, 3.707e-2
-0.391, 3.713e-2
-0.392, 3.716e-2
-0.393, 3.722e-2
-0.394, 3.728e-2
-0.395, 3.735e-2
-0.396, 3.738e-2
-0.397, 3.744e-2
-0.398, 3.750e-2
-0.399, 3.756e-2
-0.400, 3.762e-2
-0.401, 3.765e-2
-0.402, 3.771e-2
-0.403, 3.778e-2
-0.404, 3.781e-2
-0.405, 3.787e-2
-0.406, 3.790e-2
-0.407, 3.796e-2
-0.408, 3.802e-2
-0.409, 3.808e-2
-0.410, 3.814e-2
-0.411, 3.821e-2
-0.412, 3.824e-2
-0.413, 3.830e-2
-0.414, 3.836e-2
-0.415, 3.839e-2
-0.416, 3.845e-2
-0.417, 3.851e-2
-0.418, 3.857e-2
-0.419, 3.860e-2
-0.420, 3.867e-2
-0.421, 3.873e-2
-0.422, 3.879e-2
-0.423, 3.885e-2
-0.424, 3.888e-2
-0.425, 3.894e-2
-0.426, 3.897e-2
-0.427, 3.903e-2
-0.428, 3.909e-2
-0.429, 3.916e-2
-0.430, 3.922e-2
-0.431, 3.925e-2
-0.432, 3.931e-2
-0.433, 3.937e-2
-0.434, 3.943e-2
-0.435, 3.946e-2
-0.436, 3.952e-2
-0.437, 3.959e-2
-0.438, 3.965e-2
-0.439, 3.968e-2
-0.440, 3.974e-2
-0.441, 3.980e-2
-0.442, 3.986e-2
-0.443, 3.992e-2
-0.444, 3.995e-2
-0.445, 4.002e-2
-0.446, 4.008e-2
-0.447, 4.011e-2
-0.448, 4.017e-2
-0.449, 4.023e-2
-0.450, 4.029e-2
-0.451, 4.035e-2
-0.452, 4.038e-2
-0.453, 4.044e-2
-0.454, 4.051e-2
-0.455, 4.054e-2
-0.456, 4.060e-2
-0.457, 4.066e-2
-0.458, 4.072e-2
-0.459, 4.078e-2
-0.460, 4.084e-2
-0.461, 4.087e-2
-0.462, 4.094e-2
-0.463, 4.100e-2
-0.464, 4.106e-2
-0.465, 4.109e-2
-0.466, 4.115e-2
-0.467, 4.121e-2
-0.468, 4.127e-2
-0.469, 4.133e-2
-0.470, 4.137e-2
-0.471, 4.143e-2
-0.472, 4.149e-2
-0.473, 4.155e-2
-0.474, 4.158e-2
-0.475, 4.164e-2
-0.476, 4.170e-2
-0.477, 4.173e-2
-0.478, 4.179e-2
-0.479, 4.186e-2
-0.480, 4.192e-2
-0.481, 4.198e-2
-0.482, 4.204e-2
-0.483, 4.207e-2
-0.484, 4.213e-2
-0.485, 4.219e-2
-0.486, 4.222e-2
-0.487, 4.229e-2
-0.488, 4.235e-2
-0.489, 4.241e-2
-0.490, 4.247e-2
-0.491, 4.250e-2
-0.492, 4.256e-2
-0.493, 4.262e-2
-0.494, 4.268e-2
-0.495, 4.275e-2
-0.496, 4.278e-2
-0.497, 4.284e-2
-0.498, 4.290e-2
-0.499, 4.293e-2
-0.500, 4.299e-2
-0.501, 4.305e-2
-0.502, 4.311e-2
-0.503, 4.318e-2
-0.504, 4.324e-2
-0.505, 4.327e-2
-0.506, 4.333e-2
-0.507, 4.339e-2
-0.508, 4.345e-2
-0.509, 4.351e-2
-0.510, 4.354e-2
-0.511, 4.361e-2
-0.512, 4.364e-2
-0.513, 4.370e-2
-0.514, 4.376e-2
-0.515, 4.382e-2
-0.516, 4.385e-2
-0.517, 4.391e-2
-0.518, 4.397e-2
-0.519, 4.403e-2
-0.520, 4.410e-2
-0.521, 4.416e-2
-0.522, 4.422e-2
-0.523, 4.425e-2
-0.524, 4.431e-2
-0.525, 4.437e-2
-0.526, 4.440e-2
-0.527, 4.446e-2
-0.528, 4.453e-2
-0.529, 4.459e-2
-0.530, 4.465e-2
-0.531, 4.471e-2
-0.532, 4.477e-2
-0.533, 4.480e-2
-0.534, 4.486e-2
-0.535, 4.492e-2
-0.536, 4.496e-2
-0.537, 4.502e-2
-0.538, 4.508e-2
-0.539, 4.514e-2
-0.540, 4.520e-2
-0.541, 4.526e-2
-0.542, 4.532e-2
-0.543, 4.535e-2
-0.544, 4.542e-2
-0.545, 4.548e-2
-0.546, 4.551e-2
-0.547, 4.560e-2
-0.548, 4.563e-2
-0.549, 4.569e-2
-0.550, 4.575e-2
-0.551, 4.581e-2
-0.552, 4.588e-2
-0.553, 4.594e-2
-0.554, 4.597e-2
-0.555, 4.603e-2
-0.556, 4.606e-2
-0.557, 4.612e-2
-0.558, 4.621e-2
-0.559, 4.627e-2
-0.560, 4.631e-2
-0.561, 4.637e-2
-0.562, 4.643e-2
-0.563, 4.649e-2
-0.564, 4.655e-2
-0.565, 4.658e-2
-0.566, 4.664e-2
-0.567, 4.670e-2
-0.568, 4.677e-2
-0.569, 4.683e-2
-0.570, 4.689e-2
-0.571, 4.695e-2
-0.572, 4.701e-2
-0.573, 4.707e-2
-0.574, 4.710e-2
-0.575, 4.716e-2
-0.576, 4.723e-2
-0.577, 4.729e-2
-0.578, 4.735e-2
-0.579, 4.741e-2
-0.580, 4.747e-2
-0.581, 4.753e-2
-0.582, 4.759e-2
-0.583, 4.766e-2
-0.584, 4.769e-2
-0.585, 4.775e-2
-0.586, 4.781e-2
-0.587, 4.787e-2
-0.588, 4.793e-2
-0.589, 4.799e-2
-0.590, 4.802e-2
-0.591, 4.808e-2
-0.592, 4.815e-2
-0.593, 4.821e-2
-0.594, 4.827e-2
-0.595, 4.833e-2
-0.596, 4.836e-2
-0.597, 4.842e-2
-0.598, 4.848e-2
-0.599, 4.854e-2
-0.600, 4.861e-2
-0.601, 4.867e-2
-0.602, 4.873e-2
-0.603, 4.879e-2
-0.604, 4.885e-2
-0.605, 4.888e-2
-0.606, 4.894e-2
-0.607, 4.901e-2
-0.608, 4.907e-2
-0.609, 4.913e-2
-0.610, 4.919e-2
-0.611, 4.922e-2
-0.612, 4.931e-2
-0.613, 4.937e-2
-0.614, 4.940e-2
-0.615, 4.947e-2
-0.616, 4.953e-2
-0.617, 4.959e-2
-0.618, 4.965e-2
-0.619, 4.971e-2
-0.620, 4.977e-2
-0.621, 4.980e-2
-0.622, 4.989e-2
-0.623, 4.993e-2
-0.624, 4.999e-2
-0.625, 5.005e-2
-0.626, 5.008e-2
-0.627, 5.014e-2
-0.628, 5.023e-2
-0.629, 5.026e-2
-0.630, 5.032e-2
-0.631, 5.039e-2
-0.632, 5.045e-2
-0.633, 5.051e-2
-0.634, 5.057e-2
-0.635, 5.063e-2
-0.636, 5.066e-2
-0.637, 5.072e-2
-0.638, 5.078e-2
-0.639, 5.085e-2
-0.640, 5.091e-2
-0.641, 5.097e-2
-0.642, 5.103e-2
-0.643, 5.109e-2
-0.644, 5.112e-2
-0.645, 5.118e-2
-0.646, 5.124e-2
-0.647, 5.131e-2
-0.648, 5.137e-2
-0.649, 5.143e-2
-0.650, 5.149e-2
-0.651, 5.155e-2
-0.652, 5.161e-2
-0.653, 5.167e-2
-0.654, 5.174e-2
-0.655, 5.177e-2
-0.656, 5.183e-2
-0.657, 5.189e-2
-0.658, 5.195e-2
-0.659, 5.201e-2
-0.660, 5.207e-2
-0.661, 5.213e-2
-0.662, 5.220e-2
-0.663, 5.226e-2
-0.664, 5.232e-2
-0.665, 5.238e-2
-0.666, 5.244e-2
-0.667, 5.250e-2
-0.668, 5.259e-2
-0.669, 5.266e-2
-0.670, 5.272e-2
-0.671, 5.278e-2
-0.672, 5.284e-2
-0.673, 5.290e-2
-0.674, 5.296e-2
-0.675, 5.299e-2
-0.676, 5.306e-2
-0.677, 5.312e-2
-0.678, 5.318e-2
-0.679, 5.324e-2
-0.680, 5.330e-2
-0.681, 5.339e-2
-0.682, 5.342e-2
-0.683, 5.348e-2
-0.684, 5.358e-2
-0.685, 5.361e-2
-0.686, 5.367e-2
-0.687, 5.373e-2
-0.688, 5.379e-2
-0.689, 5.385e-2
-0.690, 5.391e-2
-0.691, 5.398e-2
-0.692, 5.404e-2
-0.693, 5.410e-2
-0.694, 5.413e-2
-0.695, 5.419e-2
-0.696, 5.425e-2
-0.697, 5.431e-2
-0.698, 5.437e-2
-0.699, 5.444e-2
-0.700, 5.450e-2
-0.701, 5.456e-2
-0.702, 5.462e-2
-0.703, 5.468e-2
-0.704, 5.474e-2
-0.705, 5.480e-2
-0.706, 5.487e-2
-0.707, 5.490e-2
-0.708, 5.499e-2
-0.709, 5.505e-2
-0.710, 5.511e-2
-0.711, 5.514e-2
-0.712, 5.520e-2
-0.713, 5.526e-2
-0.714, 5.533e-2
-0.715, 5.539e-2
-0.716, 5.545e-2
-0.717, 5.551e-2
-0.718, 5.557e-2
-0.719, 5.566e-2
-0.720, 5.576e-2
-0.721, 5.582e-2
-0.722, 5.588e-2
-0.723, 5.594e-2
-0.724, 5.600e-2
-0.725, 5.606e-2
-0.726, 5.612e-2
-0.727, 5.618e-2
-0.728, 5.625e-2
-0.729, 5.631e-2
-0.730, 5.637e-2
-0.731, 5.643e-2
-0.732, 5.649e-2
-0.733, 5.655e-2
-0.734, 5.661e-2
-0.735, 5.668e-2
-0.736, 5.674e-2
-0.737, 5.680e-2
-0.738, 5.686e-2
-0.739, 5.692e-2
-0.740, 5.698e-2
-0.741, 5.704e-2
-0.742, 5.711e-2
-0.743, 5.717e-2
-0.744, 5.723e-2
-0.745, 5.726e-2
-0.746, 5.732e-2
-0.747, 5.738e-2
-0.748, 5.744e-2
-0.749, 5.750e-2
-0.750, 5.757e-2
-0.751, 5.763e-2
-0.752, 5.769e-2
-0.753, 5.775e-2
-0.754, 5.781e-2
-0.755, 5.787e-2
-0.756, 5.793e-2
-0.757, 5.799e-2
-0.758, 5.806e-2
-0.759, 5.812e-2
-0.760, 5.818e-2
-0.761, 5.824e-2
-0.762, 5.830e-2
-0.763, 5.836e-2
-0.764, 5.842e-2
-0.765, 5.849e-2
-0.766, 5.852e-2
-0.767, 5.861e-2
-0.768, 5.867e-2
-0.769, 5.873e-2
-0.770, 5.879e-2
-0.771, 5.885e-2
-0.772, 5.892e-2
-0.773, 5.898e-2
-0.774, 5.904e-2
-0.775, 5.913e-2
-0.776, 5.919e-2
-0.777, 5.922e-2
-0.778, 5.928e-2
-0.779, 5.934e-2
-0.780, 5.944e-2
-0.781, 5.950e-2
-0.782, 5.956e-2
-0.783, 5.962e-2
-0.784, 5.968e-2
-0.785, 5.974e-2
-0.786, 5.981e-2
-0.787, 5.987e-2
-0.788, 5.993e-2
-0.789, 5.999e-2
-0.790, 6.005e-2
-0.791, 6.011e-2
-0.792, 6.017e-2
-0.793, 6.027e-2
-0.794, 6.033e-2
-0.795, 6.039e-2
-0.796, 6.045e-2
-0.797, 6.051e-2
-0.798, 6.060e-2
-0.799, 6.063e-2
