Apr. 28, 2026   12:20:58
Cyclic Voltammetry
File: c:\users\administrator\desktop\2026.4.28\hi 2mol h2so4\0.1\run unsaved.txt
Data Source:  Experiment
Instrument Model:  CHI600E
Header: 
Note: 

Init E (V) = 0
High E (V) = 0.8
Low E (V) = -0.8
Init P/N = N
Scan Rate (V/s) = 0.1
Segment = 3
Sample Interval (V) = 0.001
Quiet Time (sec) = 2
Sensitivity (A/V) = 0.1

Segment 1:

Segment 2:

Segment 3:

Potential/V, Current/A

0.000, -9.024e-3
-0.001, -8.834e-3
-0.002, -8.669e-3
-0.003, -8.522e-3
-0.004, -8.374e-3
-0.005, -8.246e-3
-0.006, -8.111e-3
-0.007, -7.988e-3
-0.008, -7.866e-3
-0.009, -7.753e-3
-0.010, -7.634e-3
-0.011, -7.526e-3
-0.012, -7.410e-3
-0.013, -7.306e-3
-0.014, -7.195e-3
-0.015, -7.095e-3
-0.016, -6.991e-3
-0.017, -6.890e-3
-0.018, -6.789e-3
-0.019, -6.694e-3
-0.020, -6.594e-3
-0.021, -6.504e-3
-0.022, -6.404e-3
-0.023, -6.315e-3
-0.024, -6.219e-3
-0.025, -6.130e-3
-0.026, -6.037e-3
-0.027, -5.950e-3
-0.028, -5.858e-3
-0.029, -5.774e-3
-0.030, -5.683e-3
-0.031, -5.603e-3
-0.032, -5.512e-3
-0.033, -5.431e-3
-0.034, -5.347e-3
-0.035, -5.268e-3
-0.036, -5.181e-3
-0.037, -5.103e-3
-0.038, -5.017e-3
-0.039, -4.938e-3
-0.040, -4.854e-3
-0.041, -4.778e-3
-0.042, -4.694e-3
-0.043, -4.619e-3
-0.044, -4.535e-3
-0.045, -4.462e-3
-0.046, -4.382e-3
-0.047, -4.309e-3
-0.048, -4.227e-3
-0.049, -4.154e-3
-0.050, -4.077e-3
-0.051, -4.003e-3
-0.052, -3.922e-3
-0.053, -3.852e-3
-0.054, -3.774e-3
-0.055, -3.705e-3
-0.056, -3.631e-3
-0.057, -3.565e-3
-0.058, -3.487e-3
-0.059, -3.418e-3
-0.060, -3.344e-3
-0.061, -3.277e-3
-0.062, -3.200e-3
-0.063, -3.135e-3
-0.064, -3.061e-3
-0.065, -2.992e-3
-0.066, -2.922e-3
-0.067, -2.857e-3
-0.068, -2.784e-3
-0.069, -2.720e-3
-0.070, -2.646e-3
-0.071, -2.580e-3
-0.072, -2.508e-3
-0.073, -2.446e-3
-0.074, -2.374e-3
-0.075, -2.313e-3
-0.076, -2.240e-3
-0.077, -2.177e-3
-0.078, -2.106e-3
-0.079, -2.045e-3
-0.080, -1.975e-3
-0.081, -1.914e-3
-0.082, -1.844e-3
-0.083, -1.784e-3
-0.084, -1.714e-3
-0.085, -1.656e-3
-0.086, -1.587e-3
-0.087, -1.530e-3
-0.088, -1.466e-3
-0.089, -1.407e-3
-0.090, -1.341e-3
-0.091, -1.280e-3
-0.092, -1.211e-3
-0.093, -1.155e-3
-0.094, -1.087e-3
-0.095, -1.030e-3
-0.096, -9.640e-4
-0.097, -9.044e-4
-0.098, -8.408e-4
-0.099, -7.845e-4
-0.100, -7.193e-4
-0.101, -6.640e-4
-0.102, -5.964e-4
-0.103, -5.388e-4
-0.104, -4.748e-4
-0.105, -4.186e-4
-0.106, -3.540e-4
-0.107, -3.000e-4
-0.108, -2.362e-4
-0.109, -1.812e-4
-0.110, -1.172e-4
-0.111, -6.372e-5
-0.112, 9.819e-8
-0.113, 5.528e-5
-0.114, 1.161e-4
-0.115, 1.689e-4
-0.116, 2.302e-4
-0.117, 2.834e-4
-0.118, 3.444e-4
-0.119, 4.004e-4
-0.120, 4.638e-4
-0.121, 5.162e-4
-0.122, 5.776e-4
-0.123, 6.289e-4
-0.124, 6.909e-4
-0.125, 7.429e-4
-0.126, 8.049e-4
-0.127, 8.578e-4
-0.128, 9.173e-4
-0.129, 9.696e-4
-0.130, 1.029e-3
-0.131, 1.079e-3
-0.132, 1.140e-3
-0.133, 1.189e-3
-0.134, 1.250e-3
-0.135, 1.302e-3
-0.136, 1.359e-3
-0.137, 1.407e-3
-0.138, 1.464e-3
-0.139, 1.516e-3
-0.140, 1.575e-3
-0.141, 1.625e-3
-0.142, 1.683e-3
-0.143, 1.731e-3
-0.144, 1.788e-3
-0.145, 1.838e-3
-0.146, 1.894e-3
-0.147, 1.945e-3
-0.148, 2.004e-3
-0.149, 2.049e-3
-0.150, 2.105e-3
-0.151, 2.153e-3
-0.152, 2.208e-3
-0.153, 2.255e-3
-0.154, 2.312e-3
-0.155, 2.357e-3
-0.156, 2.411e-3
-0.157, 2.457e-3
-0.158, 2.514e-3
-0.159, 2.559e-3
-0.160, 2.612e-3
-0.161, 2.659e-3
-0.162, 2.716e-3
-0.163, 2.762e-3
-0.164, 2.820e-3
-0.165, 2.865e-3
-0.166, 2.922e-3
-0.167, 2.972e-3
-0.168, 3.028e-3
-0.169, 3.075e-3
-0.170, 3.128e-3
-0.171, 3.174e-3
-0.172, 3.227e-3
-0.173, 3.272e-3
-0.174, 3.326e-3
-0.175, 3.370e-3
-0.176, 3.424e-3
-0.177, 3.469e-3
-0.178, 3.519e-3
-0.179, 3.563e-3
-0.180, 3.616e-3
-0.181, 3.659e-3
-0.182, 3.711e-3
-0.183, 3.755e-3
-0.184, 3.806e-3
-0.185, 3.850e-3
-0.186, 3.905e-3
-0.187, 3.948e-3
-0.188, 3.999e-3
-0.189, 4.041e-3
-0.190, 4.094e-3
-0.191, 4.137e-3
-0.192, 4.189e-3
-0.193, 4.235e-3
-0.194, 4.286e-3
-0.195, 4.329e-3
-0.196, 4.379e-3
-0.197, 4.421e-3
-0.198, 4.471e-3
-0.199, 4.515e-3
-0.200, 4.565e-3
-0.201, 4.609e-3
-0.202, 4.659e-3
-0.203, 4.702e-3
-0.204, 4.753e-3
-0.205, 4.795e-3
-0.206, 4.844e-3
-0.207, 4.885e-3
-0.208, 4.937e-3
-0.209, 4.979e-3
-0.210, 5.026e-3
-0.211, 5.070e-3
-0.212, 5.120e-3
-0.213, 5.159e-3
-0.214, 5.209e-3
-0.215, 5.248e-3
-0.216, 5.296e-3
-0.217, 5.338e-3
-0.218, 5.390e-3
-0.219, 5.432e-3
-0.220, 5.480e-3
-0.221, 5.519e-3
-0.222, 5.567e-3
-0.223, 5.608e-3
-0.224, 5.657e-3
-0.225, 5.696e-3
-0.226, 5.741e-3
-0.227, 5.781e-3
-0.228, 5.832e-3
-0.229, 5.871e-3
-0.230, 5.918e-3
-0.231, 5.959e-3
-0.232, 6.006e-3
-0.233, 6.045e-3
-0.234, 6.093e-3
-0.235, 6.133e-3
-0.236, 6.180e-3
-0.237, 6.220e-3
-0.238, 6.265e-3
-0.239, 6.304e-3
-0.240, 6.349e-3
-0.241, 6.389e-3
-0.242, 6.434e-3
-0.243, 6.473e-3
-0.244, 6.519e-3
-0.245, 6.558e-3
-0.246, 6.604e-3
-0.247, 6.643e-3
-0.248, 6.688e-3
-0.249, 6.728e-3
-0.250, 6.774e-3
-0.251, 6.812e-3
-0.252, 6.859e-3
-0.253, 6.898e-3
-0.254, 6.941e-3
-0.255, 6.977e-3
-0.256, 7.025e-3
-0.257, 7.063e-3
-0.258, 7.107e-3
-0.259, 7.145e-3
-0.260, 7.189e-3
-0.261, 7.226e-3
-0.262, 7.273e-3
-0.263, 7.312e-3
-0.264, 7.358e-3
-0.265, 7.394e-3
-0.266, 7.437e-3
-0.267, 7.474e-3
-0.268, 7.519e-3
-0.269, 7.557e-3
-0.270, 7.604e-3
-0.271, 7.639e-3
-0.272, 7.683e-3
-0.273, 7.721e-3
-0.274, 7.765e-3
-0.275, 7.802e-3
-0.276, 7.847e-3
-0.277, 7.881e-3
-0.278, 7.924e-3
-0.279, 7.960e-3
-0.280, 8.006e-3
-0.281, 8.044e-3
-0.282, 8.086e-3
-0.283, 8.122e-3
-0.284, 8.167e-3
-0.285, 8.202e-3
-0.286, 8.245e-3
-0.287, 8.283e-3
-0.288, 8.329e-3
-0.289, 8.367e-3
-0.290, 8.410e-3
-0.291, 8.445e-3
-0.292, 8.491e-3
-0.293, 8.524e-3
-0.294, 8.569e-3
-0.295, 8.606e-3
-0.296, 8.648e-3
-0.297, 8.683e-3
-0.298, 8.724e-3
-0.299, 8.761e-3
-0.300, 8.805e-3
-0.301, 8.840e-3
-0.302, 8.884e-3
-0.303, 8.917e-3
-0.304, 8.960e-3
-0.305, 8.996e-3
-0.306, 9.038e-3
-0.307, 9.074e-3
-0.308, 9.117e-3
-0.309, 9.149e-3
-0.310, 9.192e-3
-0.311, 9.226e-3
-0.312, 9.269e-3
-0.313, 9.306e-3
-0.314, 9.347e-3
-0.315, 9.382e-3
-0.316, 9.424e-3
-0.317, 9.457e-3
-0.318, 9.499e-3
-0.319, 9.534e-3
-0.320, 9.577e-3
-0.321, 9.610e-3
-0.322, 9.652e-3
-0.323, 9.686e-3
-0.324, 9.728e-3
-0.325, 9.761e-3
-0.326, 9.803e-3
-0.327, 9.835e-3
-0.328, 9.879e-3
-0.329, 9.911e-3
-0.330, 9.952e-3
-0.331, 9.985e-3
-0.332, 1.003e-2
-0.333, 1.006e-2
-0.334, 1.010e-2
-0.335, 1.013e-2
-0.336, 1.017e-2
-0.337, 1.021e-2
-0.338, 1.025e-2
-0.339, 1.028e-2
-0.340, 1.032e-2
-0.341, 1.035e-2
-0.342, 1.039e-2
-0.343, 1.043e-2
-0.344, 1.047e-2
-0.345, 1.050e-2
-0.346, 1.054e-2
-0.347, 1.057e-2
-0.348, 1.061e-2
-0.349, 1.064e-2
-0.350, 1.069e-2
-0.351, 1.072e-2
-0.352, 1.076e-2
-0.353, 1.080e-2
-0.354, 1.084e-2
-0.355, 1.087e-2
-0.356, 1.091e-2
-0.357, 1.094e-2
-0.358, 1.098e-2
-0.359, 1.102e-2
-0.360, 1.106e-2
-0.361, 1.109e-2
-0.362, 1.113e-2
-0.363, 1.116e-2
-0.364, 1.120e-2
-0.365, 1.124e-2
-0.366, 1.127e-2
-0.367, 1.130e-2
-0.368, 1.134e-2
-0.369, 1.138e-2
-0.370, 1.141e-2
-0.371, 1.145e-2
-0.372, 1.149e-2
-0.373, 1.152e-2
-0.374, 1.156e-2
-0.375, 1.159e-2
-0.376, 1.163e-2
-0.377, 1.166e-2
-0.378, 1.170e-2
-0.379, 1.174e-2
-0.380, 1.178e-2
-0.381, 1.181e-2
-0.382, 1.185e-2
-0.383, 1.188e-2
-0.384, 1.192e-2
-0.385, 1.195e-2
-0.386, 1.199e-2
-0.387, 1.202e-2
-0.388, 1.206e-2
-0.389, 1.209e-2
-0.390, 1.212e-2
-0.391, 1.215e-2
-0.392, 1.218e-2
-0.393, 1.221e-2
-0.394, 1.226e-2
-0.395, 1.229e-2
-0.396, 1.233e-2
-0.397, 1.236e-2
-0.398, 1.240e-2
-0.399, 1.243e-2
-0.400, 1.247e-2
-0.401, 1.250e-2
-0.402, 1.254e-2
-0.403, 1.257e-2
-0.404, 1.261e-2
-0.405, 1.264e-2
-0.406, 1.268e-2
-0.407, 1.271e-2
-0.408, 1.275e-2
-0.409, 1.278e-2
-0.410, 1.282e-2
-0.411, 1.285e-2
-0.412, 1.289e-2
-0.413, 1.292e-2
-0.414, 1.296e-2
-0.415, 1.299e-2
-0.416, 1.303e-2
-0.417, 1.306e-2
-0.418, 1.310e-2
-0.419, 1.313e-2
-0.420, 1.317e-2
-0.421, 1.320e-2
-0.422, 1.324e-2
-0.423, 1.327e-2
-0.424, 1.331e-2
-0.425, 1.334e-2
-0.426, 1.338e-2
-0.427, 1.341e-2
-0.428, 1.345e-2
-0.429, 1.348e-2
-0.430, 1.352e-2
-0.431, 1.355e-2
-0.432, 1.359e-2
-0.433, 1.362e-2
-0.434, 1.366e-2
-0.435, 1.369e-2
-0.436, 1.372e-2
-0.437, 1.375e-2
-0.438, 1.379e-2
-0.439, 1.382e-2
-0.440, 1.386e-2
-0.441, 1.389e-2
-0.442, 1.393e-2
-0.443, 1.396e-2
-0.444, 1.400e-2
-0.445, 1.403e-2
-0.446, 1.407e-2
-0.447, 1.410e-2
-0.448, 1.414e-2
-0.449, 1.417e-2
-0.450, 1.420e-2
-0.451, 1.423e-2
-0.452, 1.427e-2
-0.453, 1.430e-2
-0.454, 1.434e-2
-0.455, 1.437e-2
-0.456, 1.441e-2
-0.457, 1.444e-2
-0.458, 1.448e-2
-0.459, 1.451e-2
-0.460, 1.454e-2
-0.461, 1.458e-2
-0.462, 1.461e-2
-0.463, 1.464e-2
-0.464, 1.468e-2
-0.465, 1.471e-2
-0.466, 1.475e-2
-0.467, 1.478e-2
-0.468, 1.482e-2
-0.469, 1.485e-2
-0.470, 1.489e-2
-0.471, 1.492e-2
-0.472, 1.495e-2
-0.473, 1.498e-2
-0.474, 1.502e-2
-0.475, 1.505e-2
-0.476, 1.509e-2
-0.477, 1.511e-2
-0.478, 1.515e-2
-0.479, 1.518e-2
-0.480, 1.522e-2
-0.481, 1.525e-2
-0.482, 1.529e-2
-0.483, 1.532e-2
-0.484, 1.536e-2
-0.485, 1.539e-2
-0.486, 1.542e-2
-0.487, 1.545e-2
-0.488, 1.549e-2
-0.489, 1.552e-2
-0.490, 1.556e-2
-0.491, 1.559e-2
-0.492, 1.562e-2
-0.493, 1.566e-2
-0.494, 1.570e-2
-0.495, 1.572e-2
-0.496, 1.576e-2
-0.497, 1.579e-2
-0.498, 1.583e-2
-0.499, 1.586e-2
-0.500, 1.589e-2
-0.501, 1.593e-2
-0.502, 1.596e-2
-0.503, 1.599e-2
-0.504, 1.603e-2
-0.505, 1.605e-2
-0.506, 1.609e-2
-0.507, 1.612e-2
-0.508, 1.616e-2
-0.509, 1.619e-2
-0.510, 1.623e-2
-0.511, 1.626e-2
-0.512, 1.630e-2
-0.513, 1.633e-2
-0.514, 1.637e-2
-0.515, 1.640e-2
-0.516, 1.644e-2
-0.517, 1.647e-2
-0.518, 1.650e-2
-0.519, 1.653e-2
-0.520, 1.657e-2
-0.521, 1.660e-2
-0.522, 1.664e-2
-0.523, 1.666e-2
-0.524, 1.670e-2
-0.525, 1.673e-2
-0.526, 1.677e-2
-0.527, 1.679e-2
-0.528, 1.683e-2
-0.529, 1.686e-2
-0.530, 1.690e-2
-0.531, 1.693e-2
-0.532, 1.697e-2
-0.533, 1.699e-2
-0.534, 1.703e-2
-0.535, 1.706e-2
-0.536, 1.709e-2
-0.537, 1.712e-2
-0.538, 1.716e-2
-0.539, 1.719e-2
-0.540, 1.723e-2
-0.541, 1.727e-2
-0.542, 1.732e-2
-0.543, 1.735e-2
-0.544, 1.739e-2
-0.545, 1.742e-2
-0.546, 1.745e-2
-0.547, 1.748e-2
-0.548, 1.752e-2
-0.549, 1.755e-2
-0.550, 1.759e-2
-0.551, 1.762e-2
-0.552, 1.766e-2
-0.553, 1.769e-2
-0.554, 1.772e-2
-0.555, 1.775e-2
-0.556, 1.779e-2
-0.557, 1.782e-2
-0.558, 1.785e-2
-0.559, 1.788e-2
-0.560, 1.792e-2
-0.561, 1.795e-2
-0.562, 1.798e-2
-0.563, 1.801e-2
-0.564, 1.804e-2
-0.565, 1.807e-2
-0.566, 1.811e-2
-0.567, 1.814e-2
-0.568, 1.817e-2
-0.569, 1.820e-2
-0.570, 1.824e-2
-0.571, 1.827e-2
-0.572, 1.831e-2
-0.573, 1.834e-2
-0.574, 1.837e-2
-0.575, 1.840e-2
-0.576, 1.843e-2
-0.577, 1.846e-2
-0.578, 1.850e-2
-0.579, 1.853e-2
-0.580, 1.857e-2
-0.581, 1.860e-2
-0.582, 1.865e-2
-0.583, 1.868e-2
-0.584, 1.871e-2
-0.585, 1.874e-2
-0.586, 1.878e-2
-0.587, 1.881e-2
-0.588, 1.884e-2
-0.589, 1.887e-2
-0.590, 1.890e-2
-0.591, 1.893e-2
-0.592, 1.897e-2
-0.593, 1.900e-2
-0.594, 1.904e-2
-0.595, 1.906e-2
-0.596, 1.910e-2
-0.597, 1.913e-2
-0.598, 1.917e-2
-0.599, 1.920e-2
-0.600, 1.923e-2
-0.601, 1.926e-2
-0.602, 1.930e-2
-0.603, 1.932e-2
-0.604, 1.936e-2
-0.605, 1.940e-2
-0.606, 1.945e-2
-0.607, 1.948e-2
-0.608, 1.951e-2
-0.609, 1.954e-2
-0.610, 1.958e-2
-0.611, 1.961e-2
-0.612, 1.965e-2
-0.613, 1.967e-2
-0.614, 1.969e-2
-0.615, 1.973e-2
-0.616, 1.980e-2
-0.617, 1.991e-2
-0.618, 1.995e-2
-0.619, 1.999e-2
-0.620, 2.002e-2
-0.621, 2.005e-2
-0.622, 2.008e-2
-0.623, 2.011e-2
-0.624, 2.014e-2
-0.625, 2.018e-2
-0.626, 2.022e-2
-0.627, 2.026e-2
-0.628, 2.031e-2
-0.629, 2.035e-2
-0.630, 2.038e-2
-0.631, 2.041e-2
-0.632, 2.044e-2
-0.633, 2.047e-2
-0.634, 2.051e-2
-0.635, 2.054e-2
-0.636, 2.058e-2
-0.637, 2.061e-2
-0.638, 2.064e-2
-0.639, 2.067e-2
-0.640, 2.071e-2
-0.641, 2.074e-2
-0.642, 2.077e-2
-0.643, 2.080e-2
-0.644, 2.083e-2
-0.645, 2.086e-2
-0.646, 2.089e-2
-0.647, 2.092e-2
-0.648, 2.095e-2
-0.649, 2.099e-2
-0.650, 2.102e-2
-0.651, 2.105e-2
-0.652, 2.109e-2
-0.653, 2.114e-2
-0.654, 2.121e-2
-0.655, 2.124e-2
-0.656, 2.127e-2
-0.657, 2.131e-2
-0.658, 2.134e-2
-0.659, 2.137e-2
-0.660, 2.140e-2
-0.661, 2.143e-2
-0.662, 2.147e-2
-0.663, 2.152e-2
-0.664, 2.157e-2
-0.665, 2.159e-2
-0.666, 2.163e-2
-0.667, 2.166e-2
-0.668, 2.170e-2
-0.669, 2.172e-2
-0.670, 2.176e-2
-0.671, 2.179e-2
-0.672, 2.183e-2
-0.673, 2.186e-2
-0.674, 2.189e-2
-0.675, 2.193e-2
-0.676, 2.196e-2
-0.677, 2.199e-2
-0.678, 2.202e-2
-0.679, 2.205e-2
-0.680, 2.208e-2
-0.681, 2.211e-2
-0.682, 2.216e-2
-0.683, 2.219e-2
-0.684, 2.224e-2
-0.685, 2.228e-2
-0.686, 2.232e-2
-0.687, 2.235e-2
-0.688, 2.238e-2
-0.689, 2.241e-2
-0.690, 2.245e-2
-0.691, 2.248e-2
-0.692, 2.252e-2
-0.693, 2.255e-2
-0.694, 2.258e-2
-0.695, 2.262e-2
-0.696, 2.265e-2
-0.697, 2.268e-2
-0.698, 2.272e-2
-0.699, 2.274e-2
-0.700, 2.277e-2
-0.701, 2.283e-2
-0.702, 2.288e-2
-0.703, 2.292e-2
-0.704, 2.297e-2
-0.705, 2.301e-2
-0.706, 2.305e-2
-0.707, 2.309e-2
-0.708, 2.312e-2
-0.709, 2.314e-2
-0.710, 2.318e-2
-0.711, 2.321e-2
-0.712, 2.323e-2
-0.713, 2.327e-2
-0.714, 2.331e-2
-0.715, 2.333e-2
-0.716, 2.337e-2
-0.717, 2.341e-2
-0.718, 2.345e-2
-0.719, 2.347e-2
-0.720, 2.350e-2
-0.721, 2.355e-2
-0.722, 2.361e-2
-0.723, 2.365e-2
-0.724, 2.370e-2
-0.725, 2.374e-2
-0.726, 2.378e-2
-0.727, 2.381e-2
-0.728, 2.384e-2
-0.729, 2.388e-2
-0.730, 2.391e-2
-0.731, 2.394e-2
-0.732, 2.398e-2
-0.733, 2.402e-2
-0.734, 2.406e-2
-0.735, 2.410e-2
-0.736, 2.413e-2
-0.737, 2.417e-2
-0.738, 2.420e-2
-0.739, 2.425e-2
-0.740, 2.430e-2
-0.741, 2.434e-2
-0.742, 2.439e-2
-0.743, 2.444e-2
-0.744, 2.449e-2
-0.745, 2.453e-2
-0.746, 2.457e-2
-0.747, 2.460e-2
-0.748, 2.464e-2
-0.749, 2.469e-2
-0.750, 2.473e-2
-0.751, 2.477e-2
-0.752, 2.481e-2
-0.753, 2.484e-2
-0.754, 2.489e-2
-0.755, 2.492e-2
-0.756, 2.497e-2
-0.757, 2.502e-2
-0.758, 2.508e-2
-0.759, 2.513e-2
-0.760, 2.517e-2
-0.761, 2.521e-2
-0.762, 2.524e-2
-0.763, 2.528e-2
-0.764, 2.532e-2
-0.765, 2.536e-2
-0.766, 2.542e-2
-0.767, 2.546e-2
-0.768, 2.550e-2
-0.769, 2.554e-2
-0.770, 2.560e-2
-0.771, 2.566e-2
-0.772, 2.573e-2
-0.773, 2.579e-2
-0.774, 2.582e-2
-0.775, 2.586e-2
-0.776, 2.590e-2
-0.777, 2.594e-2
-0.778, 2.599e-2
-0.779, 2.603e-2
-0.780, 2.608e-2
-0.781, 2.613e-2
-0.782, 2.619e-2
-0.783, 2.623e-2
-0.784, 2.627e-2
-0.785, 2.632e-2
-0.786, 2.639e-2
-0.787, 2.646e-2
-0.788, 2.656e-2
-0.789, 2.666e-2
-0.790, 2.671e-2
-0.791, 2.678e-2
-0.792, 2.683e-2
-0.793, 2.687e-2
-0.794, 2.694e-2
-0.795, 2.699e-2
-0.796, 2.703e-2
-0.797, 2.708e-2
-0.798, 2.713e-2
-0.799, 2.718e-2
-0.800, 2.712e-2
-0.799, 2.680e-2
-0.798, 2.653e-2
-0.797, 2.628e-2
-0.796, 2.606e-2
-0.795, 2.583e-2
-0.794, 2.563e-2
-0.793, 2.541e-2
-0.792, 2.521e-2
-0.791, 2.500e-2
-0.790, 2.480e-2
-0.789, 2.462e-2
-0.788, 2.442e-2
-0.787, 2.423e-2
-0.786, 2.405e-2
-0.785, 2.388e-2
-0.784, 2.371e-2
-0.783, 2.354e-2
-0.782, 2.340e-2
-0.781, 2.323e-2
-0.780, 2.306e-2
-0.779, 2.290e-2
-0.778, 2.273e-2
-0.777, 2.257e-2
-0.776, 2.242e-2
-0.775, 2.227e-2
-0.774, 2.211e-2
-0.773, 2.196e-2
-0.772, 2.181e-2
-0.771, 2.167e-2
-0.770, 2.153e-2
-0.769, 2.139e-2
-0.768, 2.126e-2
-0.767, 2.112e-2
-0.766, 2.099e-2
-0.765, 2.084e-2
-0.764, 2.070e-2
-0.763, 2.055e-2
-0.762, 2.040e-2
-0.761, 2.025e-2
-0.760, 2.011e-2
-0.759, 1.996e-2
-0.758, 1.982e-2
-0.757, 1.969e-2
-0.756, 1.955e-2
-0.755, 1.940e-2
-0.754, 1.927e-2
-0.753, 1.913e-2
-0.752, 1.902e-2
-0.751, 1.889e-2
-0.750, 1.877e-2
-0.749, 1.865e-2
-0.748, 1.854e-2
-0.747, 1.841e-2
-0.746, 1.828e-2
-0.745, 1.814e-2
-0.744, 1.803e-2
-0.743, 1.791e-2
-0.742, 1.778e-2
-0.741, 1.766e-2
-0.740, 1.754e-2
-0.739, 1.744e-2
-0.738, 1.734e-2
-0.737, 1.726e-2
-0.736, 1.717e-2
-0.735, 1.706e-2
-0.734, 1.697e-2
-0.733, 1.686e-2
-0.732, 1.675e-2
-0.731, 1.664e-2
-0.730, 1.653e-2
-0.729, 1.643e-2
-0.728, 1.631e-2
-0.727, 1.619e-2
-0.726, 1.607e-2
-0.725, 1.595e-2
-0.724, 1.584e-2
-0.723, 1.574e-2
-0.722, 1.563e-2
-0.721, 1.551e-2
-0.720, 1.540e-2
-0.719, 1.528e-2
-0.718, 1.518e-2
-0.717, 1.505e-2
-0.716, 1.495e-2
-0.715, 1.485e-2
-0.714, 1.476e-2
-0.713, 1.466e-2
-0.712, 1.458e-2
-0.711, 1.447e-2
-0.710, 1.437e-2
-0.709, 1.426e-2
-0.708, 1.415e-2
-0.707, 1.404e-2
-0.706, 1.394e-2
-0.705, 1.383e-2
-0.704, 1.374e-2
-0.703, 1.363e-2
-0.702, 1.353e-2
-0.701, 1.343e-2
-0.700, 1.333e-2
-0.699, 1.322e-2
-0.698, 1.311e-2
-0.697, 1.303e-2
-0.696, 1.294e-2
-0.695, 1.285e-2
-0.694, 1.276e-2
-0.693, 1.267e-2
-0.692, 1.258e-2
-0.691, 1.248e-2
-0.690, 1.239e-2
-0.689, 1.228e-2
-0.688, 1.218e-2
-0.687, 1.209e-2
-0.686, 1.202e-2
-0.685, 1.193e-2
-0.684, 1.183e-2
-0.683, 1.174e-2
-0.682, 1.165e-2
-0.681, 1.155e-2
-0.680, 1.146e-2
-0.679, 1.137e-2
-0.678, 1.128e-2
-0.677, 1.119e-2
-0.676, 1.110e-2
-0.675, 1.100e-2
-0.674, 1.091e-2
-0.673, 1.084e-2
-0.672, 1.076e-2
-0.671, 1.067e-2
-0.670, 1.059e-2
-0.669, 1.050e-2
-0.668, 1.042e-2
-0.667, 1.033e-2
-0.666, 1.025e-2
-0.665, 1.016e-2
-0.664, 1.008e-2
-0.663, 9.996e-3
-0.662, 9.918e-3
-0.661, 9.831e-3
-0.660, 9.746e-3
-0.659, 9.657e-3
-0.658, 9.573e-3
-0.657, 9.484e-3
-0.656, 9.408e-3
-0.655, 9.318e-3
-0.654, 9.236e-3
-0.653, 9.150e-3
-0.652, 9.077e-3
-0.651, 9.000e-3
-0.650, 8.918e-3
-0.649, 8.844e-3
-0.648, 8.769e-3
-0.647, 8.701e-3
-0.646, 8.624e-3
-0.645, 8.537e-3
-0.644, 8.457e-3
-0.643, 8.376e-3
-0.642, 8.296e-3
-0.641, 8.212e-3
-0.640, 8.139e-3
-0.639, 8.076e-3
-0.638, 8.005e-3
-0.637, 7.922e-3
-0.636, 7.850e-3
-0.635, 7.771e-3
-0.634, 7.692e-3
-0.633, 7.590e-3
-0.632, 7.515e-3
-0.631, 7.445e-3
-0.630, 7.371e-3
-0.629, 7.297e-3
-0.628, 7.224e-3
-0.627, 7.152e-3
-0.626, 7.082e-3
-0.625, 7.008e-3
-0.624, 6.943e-3
-0.623, 6.872e-3
-0.622, 6.808e-3
-0.621, 6.748e-3
-0.620, 6.689e-3
-0.619, 6.617e-3
-0.618, 6.546e-3
-0.617, 6.476e-3
-0.616, 6.406e-3
-0.615, 6.330e-3
-0.614, 6.268e-3
-0.613, 6.196e-3
-0.612, 6.133e-3
-0.611, 6.064e-3
-0.610, 5.992e-3
-0.609, 5.918e-3
-0.608, 5.855e-3
-0.607, 5.784e-3
-0.606, 5.721e-3
-0.605, 5.656e-3
-0.604, 5.591e-3
-0.603, 5.529e-3
-0.602, 5.464e-3
-0.601, 5.412e-3
-0.600, 5.358e-3
-0.599, 5.288e-3
-0.598, 5.237e-3
-0.597, 5.190e-3
-0.596, 5.130e-3
-0.595, 5.072e-3
-0.594, 5.013e-3
-0.593, 4.949e-3
-0.592, 4.895e-3
-0.591, 4.836e-3
-0.590, 4.772e-3
-0.589, 4.708e-3
-0.588, 4.645e-3
-0.587, 4.572e-3
-0.586, 4.506e-3
-0.585, 4.430e-3
-0.584, 4.366e-3
-0.583, 4.298e-3
-0.582, 4.230e-3
-0.581, 4.163e-3
-0.580, 4.119e-3
-0.579, 4.052e-3
-0.578, 3.988e-3
-0.577, 3.921e-3
-0.576, 3.859e-3
-0.575, 3.789e-3
-0.574, 3.727e-3
-0.573, 3.663e-3
-0.572, 3.601e-3
-0.571, 3.541e-3
-0.570, 3.484e-3
-0.569, 3.419e-3
-0.568, 3.358e-3
-0.567, 3.290e-3
-0.566, 3.231e-3
-0.565, 3.168e-3
-0.564, 3.108e-3
-0.563, 3.041e-3
-0.562, 2.975e-3
-0.561, 2.909e-3
-0.560, 2.854e-3
-0.559, 2.792e-3
-0.558, 2.732e-3
-0.557, 2.678e-3
-0.556, 2.621e-3
-0.555, 2.565e-3
-0.554, 2.505e-3
-0.553, 2.443e-3
-0.552, 2.387e-3
-0.551, 2.328e-3
-0.550, 2.268e-3
-0.549, 2.211e-3
-0.548, 2.157e-3
-0.547, 2.096e-3
-0.546, 2.036e-3
-0.545, 1.969e-3
-0.544, 1.908e-3
-0.543, 1.858e-3
-0.542, 1.801e-3
-0.541, 1.741e-3
-0.540, 1.684e-3
-0.539, 1.624e-3
-0.538, 1.568e-3
-0.537, 1.507e-3
-0.536, 1.452e-3
-0.535, 1.396e-3
-0.534, 1.339e-3
-0.533, 1.279e-3
-0.532, 1.221e-3
-0.531, 1.165e-3
-0.530, 1.110e-3
-0.529, 1.063e-3
-0.528, 1.010e-3
-0.527, 9.546e-4
-0.526, 9.038e-4
-0.525, 8.472e-4
-0.524, 7.929e-4
-0.523, 7.385e-4
-0.522, 6.835e-4
-0.521, 6.250e-4
-0.520, 5.724e-4
-0.519, 5.142e-4
-0.518, 4.600e-4
-0.517, 4.055e-4
-0.516, 3.460e-4
-0.515, 2.927e-4
-0.514, 2.456e-4
-0.513, 1.914e-4
-0.512, 1.379e-4
-0.511, 8.777e-5
-0.510, 3.485e-5
-0.509, -1.757e-5
-0.508, -6.745e-5
-0.507, -1.194e-4
-0.506, -1.719e-4
-0.505, -2.261e-4
-0.504, -2.772e-4
-0.503, -3.288e-4
-0.502, -3.807e-4
-0.501, -4.347e-4
-0.500, -4.870e-4
-0.499, -5.382e-4
-0.498, -5.858e-4
-0.497, -6.346e-4
-0.496, -6.841e-4
-0.495, -7.409e-4
-0.494, -7.922e-4
-0.493, -8.462e-4
-0.492, -8.956e-4
-0.491, -9.434e-4
-0.490, -9.927e-4
-0.489, -1.047e-3
-0.488, -1.096e-3
-0.487, -1.146e-3
-0.486, -1.196e-3
-0.485, -1.246e-3
-0.484, -1.296e-3
-0.483, -1.347e-3
-0.482, -1.399e-3
-0.481, -1.448e-3
-0.480, -1.496e-3
-0.479, -1.545e-3
-0.478, -1.591e-3
-0.477, -1.641e-3
-0.476, -1.691e-3
-0.475, -1.740e-3
-0.474, -1.785e-3
-0.473, -1.834e-3
-0.472, -1.882e-3
-0.471, -1.933e-3
-0.470, -1.978e-3
-0.469, -2.023e-3
-0.468, -2.069e-3
-0.467, -2.118e-3
-0.466, -2.164e-3
-0.465, -2.213e-3
-0.464, -2.261e-3
-0.463, -2.309e-3
-0.462, -2.357e-3
-0.461, -2.406e-3
-0.460, -2.451e-3
-0.459, -2.496e-3
-0.458, -2.543e-3
-0.457, -2.592e-3
-0.456, -2.637e-3
-0.455, -2.686e-3
-0.454, -2.734e-3
-0.453, -2.781e-3
-0.452, -2.827e-3
-0.451, -2.871e-3
-0.450, -2.915e-3
-0.449, -2.958e-3
-0.448, -3.006e-3
-0.447, -3.052e-3
-0.446, -3.097e-3
-0.445, -3.142e-3
-0.444, -3.187e-3
-0.443, -3.232e-3
-0.442, -3.278e-3
-0.441, -3.323e-3
-0.440, -3.366e-3
-0.439, -3.412e-3
-0.438, -3.458e-3
-0.437, -3.503e-3
-0.436, -3.549e-3
-0.435, -3.593e-3
-0.434, -3.635e-3
-0.433, -3.677e-3
-0.432, -3.719e-3
-0.431, -3.764e-3
-0.430, -3.808e-3
-0.429, -3.854e-3
-0.428, -3.896e-3
-0.427, -3.941e-3
-0.426, -3.986e-3
-0.425, -4.028e-3
-0.424, -4.070e-3
-0.423, -4.116e-3
-0.422, -4.157e-3
-0.421, -4.199e-3
-0.420, -4.243e-3
-0.419, -4.286e-3
-0.418, -4.328e-3
-0.417, -4.373e-3
-0.416, -4.417e-3
-0.415, -4.458e-3
-0.414, -4.500e-3
-0.413, -4.543e-3
-0.412, -4.586e-3
-0.411, -4.627e-3
-0.410, -4.671e-3
-0.409, -4.716e-3
-0.408, -4.758e-3
-0.407, -4.801e-3
-0.406, -4.842e-3
-0.405, -4.883e-3
-0.404, -4.924e-3
-0.403, -4.967e-3
-0.402, -5.009e-3
-0.401, -5.050e-3
-0.400, -5.091e-3
-0.399, -5.132e-3
-0.398, -5.172e-3
-0.397, -5.212e-3
-0.396, -5.250e-3
-0.395, -5.288e-3
-0.394, -5.328e-3
-0.393, -5.368e-3
-0.392, -5.407e-3
-0.391, -5.448e-3
-0.390, -5.487e-3
-0.389, -5.527e-3
-0.388, -5.568e-3
-0.387, -5.607e-3
-0.386, -5.644e-3
-0.385, -5.684e-3
-0.384, -5.726e-3
-0.383, -5.766e-3
-0.382, -5.806e-3
-0.381, -5.845e-3
-0.380, -5.885e-3
-0.379, -5.925e-3
-0.378, -5.964e-3
-0.377, -6.004e-3
-0.376, -6.042e-3
-0.375, -6.081e-3
-0.374, -6.121e-3
-0.373, -6.161e-3
-0.372, -6.201e-3
-0.371, -6.239e-3
-0.370, -6.277e-3
-0.369, -6.318e-3
-0.368, -6.356e-3
-0.367, -6.395e-3
-0.366, -6.435e-3
-0.365, -6.474e-3
-0.364, -6.514e-3
-0.363, -6.550e-3
-0.362, -6.589e-3
-0.361, -6.625e-3
-0.360, -6.663e-3
-0.359, -6.701e-3
-0.358, -6.742e-3
-0.357, -6.778e-3
-0.356, -6.817e-3
-0.355, -6.853e-3
-0.354, -6.892e-3
-0.353, -6.931e-3
-0.352, -6.970e-3
-0.351, -7.007e-3
-0.350, -7.045e-3
-0.349, -7.082e-3
-0.348, -7.119e-3
-0.347, -7.157e-3
-0.346, -7.196e-3
-0.345, -7.233e-3
-0.344, -7.270e-3
-0.343, -7.307e-3
-0.342, -7.344e-3
-0.341, -7.380e-3
-0.340, -7.420e-3
-0.339, -7.456e-3
-0.338, -7.494e-3
-0.337, -7.531e-3
-0.336, -7.568e-3
-0.335, -7.602e-3
-0.334, -7.639e-3
-0.333, -7.675e-3
-0.332, -7.714e-3
-0.331, -7.750e-3
-0.330, -7.787e-3
-0.329, -7.822e-3
-0.328, -7.857e-3
-0.327, -7.894e-3
-0.326, -7.930e-3
-0.325, -7.965e-3
-0.324, -8.003e-3
-0.323, -8.037e-3
-0.322, -8.074e-3
-0.321, -8.109e-3
-0.320, -8.145e-3
-0.319, -8.180e-3
-0.318, -8.216e-3
-0.317, -8.251e-3
-0.316, -8.287e-3
-0.315, -8.321e-3
-0.314, -8.357e-3
-0.313, -8.394e-3
-0.312, -8.430e-3
-0.311, -8.466e-3
-0.310, -8.501e-3
-0.309, -8.535e-3
-0.308, -8.569e-3
-0.307, -8.607e-3
-0.306, -8.641e-3
-0.305, -8.678e-3
-0.304, -8.712e-3
-0.303, -8.744e-3
-0.302, -8.778e-3
-0.301, -8.811e-3
-0.300, -8.848e-3
-0.299, -8.880e-3
-0.298, -8.916e-3
-0.297, -8.950e-3
-0.296, -8.985e-3
-0.295, -9.018e-3
-0.294, -9.054e-3
-0.293, -9.086e-3
-0.292, -9.121e-3
-0.291, -9.154e-3
-0.290, -9.189e-3
-0.289, -9.222e-3
-0.288, -9.256e-3
-0.287, -9.289e-3
-0.286, -9.323e-3
-0.285, -9.357e-3
-0.284, -9.390e-3
-0.283, -9.422e-3
-0.282, -9.455e-3
-0.281, -9.489e-3
-0.280, -9.522e-3
-0.279, -9.556e-3
-0.278, -9.588e-3
-0.277, -9.622e-3
-0.276, -9.656e-3
-0.275, -9.690e-3
-0.274, -9.722e-3
-0.273, -9.755e-3
-0.272, -9.788e-3
-0.271, -9.819e-3
-0.270, -9.853e-3
-0.269, -9.887e-3
-0.268, -9.921e-3
-0.267, -9.953e-3
-0.266, -9.986e-3
-0.265, -1.002e-2
-0.264, -1.005e-2
-0.263, -1.008e-2
-0.262, -1.011e-2
-0.261, -1.014e-2
-0.260, -1.018e-2
-0.259, -1.021e-2
-0.258, -1.024e-2
-0.257, -1.027e-2
-0.256, -1.031e-2
-0.255, -1.034e-2
-0.254, -1.038e-2
-0.253, -1.041e-2
-0.252, -1.044e-2
-0.251, -1.047e-2
-0.250, -1.050e-2
-0.249, -1.053e-2
-0.248, -1.057e-2
-0.247, -1.060e-2
-0.246, -1.063e-2
-0.245, -1.066e-2
-0.244, -1.069e-2
-0.243, -1.072e-2
-0.242, -1.076e-2
-0.241, -1.079e-2
-0.240, -1.082e-2
-0.239, -1.085e-2
-0.238, -1.089e-2
-0.237, -1.092e-2
-0.236, -1.095e-2
-0.235, -1.098e-2
-0.234, -1.101e-2
-0.233, -1.104e-2
-0.232, -1.107e-2
-0.231, -1.110e-2
-0.230, -1.114e-2
-0.229, -1.117e-2
-0.228, -1.120e-2
-0.227, -1.123e-2
-0.226, -1.126e-2
-0.225, -1.129e-2
-0.224, -1.132e-2
-0.223, -1.135e-2
-0.222, -1.138e-2
-0.221, -1.141e-2
-0.220, -1.145e-2
-0.219, -1.148e-2
-0.218, -1.151e-2
-0.217, -1.154e-2
-0.216, -1.157e-2
-0.215, -1.160e-2
-0.214, -1.163e-2
-0.213, -1.166e-2
-0.212, -1.170e-2
-0.211, -1.173e-2
-0.210, -1.176e-2
-0.209, -1.179e-2
-0.208, -1.182e-2
-0.207, -1.185e-2
-0.206, -1.188e-2
-0.205, -1.191e-2
-0.204, -1.194e-2
-0.203, -1.197e-2
-0.202, -1.200e-2
-0.201, -1.203e-2
-0.200, -1.206e-2
-0.199, -1.209e-2
-0.198, -1.212e-2
-0.197, -1.215e-2
-0.196, -1.218e-2
-0.195, -1.221e-2
-0.194, -1.224e-2
-0.193, -1.227e-2
-0.192, -1.230e-2
-0.191, -1.233e-2
-0.190, -1.236e-2
-0.189, -1.239e-2
-0.188, -1.242e-2
-0.187, -1.245e-2
-0.186, -1.248e-2
-0.185, -1.251e-2
-0.184, -1.254e-2
-0.183, -1.257e-2
-0.182, -1.260e-2
-0.181, -1.263e-2
-0.180, -1.266e-2
-0.179, -1.269e-2
-0.178, -1.272e-2
-0.177, -1.275e-2
-0.176, -1.278e-2
-0.175, -1.281e-2
-0.174, -1.284e-2
-0.173, -1.286e-2
-0.172, -1.290e-2
-0.171, -1.292e-2
-0.170, -1.295e-2
-0.169, -1.298e-2
-0.168, -1.301e-2
-0.167, -1.304e-2
-0.166, -1.307e-2
-0.165, -1.310e-2
-0.164, -1.313e-2
-0.163, -1.315e-2
-0.162, -1.319e-2
-0.161, -1.321e-2
-0.160, -1.324e-2
-0.159, -1.327e-2
-0.158, -1.330e-2
-0.157, -1.333e-2
-0.156, -1.336e-2
-0.155, -1.338e-2
-0.154, -1.341e-2
-0.153, -1.344e-2
-0.152, -1.347e-2
-0.151, -1.350e-2
-0.150, -1.353e-2
-0.149, -1.355e-2
-0.148, -1.358e-2
-0.147, -1.361e-2
-0.146, -1.364e-2
-0.145, -1.367e-2
-0.144, -1.370e-2
-0.143, -1.373e-2
-0.142, -1.376e-2
-0.141, -1.378e-2
-0.140, -1.382e-2
-0.139, -1.384e-2
-0.138, -1.387e-2
-0.137, -1.390e-2
-0.136, -1.393e-2
-0.135, -1.395e-2
-0.134, -1.399e-2
-0.133, -1.401e-2
-0.132, -1.404e-2
-0.131, -1.407e-2
-0.130, -1.410e-2
-0.129, -1.412e-2
-0.128, -1.415e-2
-0.127, -1.418e-2
-0.126, -1.421e-2
-0.125, -1.424e-2
-0.124, -1.427e-2
-0.123, -1.430e-2
-0.122, -1.433e-2
-0.121, -1.435e-2
-0.120, -1.438e-2
-0.119, -1.441e-2
-0.118, -1.444e-2
-0.117, -1.446e-2
-0.116, -1.449e-2
-0.115, -1.452e-2
-0.114, -1.455e-2
-0.113, -1.457e-2
-0.112, -1.460e-2
-0.111, -1.463e-2
-0.110, -1.466e-2
-0.109, -1.469e-2
-0.108, -1.472e-2
-0.107, -1.474e-2
-0.106, -1.477e-2
-0.105, -1.480e-2
-0.104, -1.483e-2
-0.103, -1.485e-2
-0.102, -1.489e-2
-0.101, -1.491e-2
-0.100, -1.494e-2
-0.099, -1.497e-2
-0.098, -1.500e-2
-0.097, -1.502e-2
-0.096, -1.505e-2
-0.095, -1.508e-2
-0.094, -1.511e-2
-0.093, -1.513e-2
-0.092, -1.516e-2
-0.091, -1.519e-2
-0.090, -1.522e-2
-0.089, -1.524e-2
-0.088, -1.527e-2
-0.087, -1.530e-2
-0.086, -1.533e-2
-0.085, -1.536e-2
-0.084, -1.539e-2
-0.083, -1.541e-2
-0.082, -1.544e-2
-0.081, -1.547e-2
-0.080, -1.550e-2
-0.079, -1.552e-2
-0.078, -1.555e-2
-0.077, -1.558e-2
-0.076, -1.560e-2
-0.075, -1.563e-2
-0.074, -1.566e-2
-0.073, -1.568e-2
-0.072, -1.571e-2
-0.071, -1.574e-2
-0.070, -1.577e-2
-0.069, -1.580e-2
-0.068, -1.583e-2
-0.067, -1.585e-2
-0.066, -1.588e-2
-0.065, -1.591e-2
-0.064, -1.593e-2
-0.063, -1.596e-2
-0.062, -1.599e-2
-0.061, -1.601e-2
-0.060, -1.604e-2
-0.059, -1.606e-2
-0.058, -1.610e-2
-0.057, -1.612e-2
-0.056, -1.615e-2
-0.055, -1.618e-2
-0.054, -1.620e-2
-0.053, -1.630e-2
-0.052, -1.633e-2
-0.051, -1.636e-2
-0.050, -1.639e-2
-0.049, -1.642e-2
-0.048, -1.645e-2
-0.047, -1.647e-2
-0.046, -1.650e-2
-0.045, -1.653e-2
-0.044, -1.656e-2
-0.043, -1.658e-2
-0.042, -1.661e-2
-0.041, -1.663e-2
-0.040, -1.667e-2
-0.039, -1.669e-2
-0.038, -1.672e-2
-0.037, -1.674e-2
-0.036, -1.677e-2
-0.035, -1.679e-2
-0.034, -1.682e-2
-0.033, -1.685e-2
-0.032, -1.688e-2
-0.031, -1.690e-2
-0.030, -1.693e-2
-0.029, -1.696e-2
-0.028, -1.699e-2
-0.027, -1.701e-2
-0.026, -1.704e-2
-0.025, -1.707e-2
-0.024, -1.710e-2
-0.023, -1.712e-2
-0.022, -1.715e-2
-0.021, -1.717e-2
-0.020, -1.720e-2
-0.019, -1.723e-2
-0.018, -1.725e-2
-0.017, -1.728e-2
-0.016, -1.731e-2
-0.015, -1.733e-2
-0.014, -1.736e-2
-0.013, -1.738e-2
-0.012, -1.741e-2
-0.011, -1.744e-2
-0.010, -1.746e-2
-0.009, -1.749e-2
-0.008, -1.752e-2
-0.007, -1.754e-2
-0.006, -1.757e-2
-0.005, -1.760e-2
-0.004, -1.763e-2
-0.003, -1.765e-2
-0.002, -1.768e-2
-0.001, -1.771e-2
-0.000, -1.774e-2
0.001, -1.777e-2
0.002, -1.780e-2
0.003, -1.782e-2
0.004, -1.785e-2
0.005, -1.787e-2
0.006, -1.790e-2
0.007, -1.792e-2
0.008, -1.795e-2
0.009, -1.798e-2
0.010, -1.801e-2
0.011, -1.803e-2
0.012, -1.806e-2
0.013, -1.809e-2
0.014, -1.812e-2
0.015, -1.814e-2
0.016, -1.817e-2
0.017, -1.819e-2
0.018, -1.822e-2
0.019, -1.825e-2
0.020, -1.828e-2
0.021, -1.830e-2
0.022, -1.833e-2
0.023, -1.835e-2
0.024, -1.838e-2
0.025, -1.841e-2
0.026, -1.844e-2
0.027, -1.846e-2
0.028, -1.849e-2
0.029, -1.851e-2
0.030, -1.854e-2
0.031, -1.857e-2
0.032, -1.860e-2
0.033, -1.862e-2
0.034, -1.865e-2
0.035, -1.867e-2
0.036, -1.870e-2
0.037, -1.872e-2
0.038, -1.876e-2
0.039, -1.878e-2
0.040, -1.881e-2
0.041, -1.884e-2
0.042, -1.887e-2
0.043, -1.889e-2
0.044, -1.892e-2
0.045, -1.894e-2
0.046, -1.897e-2
0.047, -1.900e-2
0.048, -1.903e-2
0.049, -1.905e-2
0.050, -1.908e-2
0.051, -1.910e-2
0.052, -1.913e-2
0.053, -1.916e-2
0.054, -1.919e-2
0.055, -1.921e-2
0.056, -1.924e-2
0.057, -1.926e-2
0.058, -1.929e-2
0.059, -1.931e-2
0.060, -1.933e-2
0.061, -1.935e-2
0.062, -1.938e-2
0.063, -1.941e-2
0.064, -1.944e-2
0.065, -1.946e-2
0.066, -1.949e-2
0.067, -1.951e-2
0.068, -1.954e-2
0.069, -1.957e-2
0.070, -1.960e-2
0.071, -1.962e-2
0.072, -1.965e-2
0.073, -1.968e-2
0.074, -1.971e-2
0.075, -1.973e-2
0.076, -1.976e-2
0.077, -1.979e-2
0.078, -1.982e-2
0.079, -1.984e-2
0.080, -1.987e-2
0.081, -1.989e-2
0.082, -1.992e-2
0.083, -1.995e-2
0.084, -1.998e-2
0.085, -2.000e-2
0.086, -2.003e-2
0.087, -2.006e-2
0.088, -2.009e-2
0.089, -2.011e-2
0.090, -2.014e-2
0.091, -2.016e-2
0.092, -2.019e-2
0.093, -2.022e-2
0.094, -2.025e-2
0.095, -2.027e-2
0.096, -2.030e-2
0.097, -2.033e-2
0.098, -2.036e-2
0.099, -2.038e-2
0.100, -2.041e-2
0.101, -2.043e-2
0.102, -2.046e-2
0.103, -2.049e-2
0.104, -2.052e-2
0.105, -2.054e-2
0.106, -2.057e-2
0.107, -2.060e-2
0.108, -2.063e-2
0.109, -2.065e-2
0.110, -2.068e-2
0.111, -2.071e-2
0.112, -2.074e-2
0.113, -2.076e-2
0.114, -2.079e-2
0.115, -2.082e-2
0.116, -2.085e-2
0.117, -2.087e-2
0.118, -2.090e-2
0.119, -2.092e-2
0.120, -2.095e-2
0.121, -2.098e-2
0.122, -2.101e-2
0.123, -2.103e-2
0.124, -2.107e-2
0.125, -2.109e-2
0.126, -2.112e-2
0.127, -2.114e-2
0.128, -2.117e-2
0.129, -2.119e-2
0.130, -2.122e-2
0.131, -2.124e-2
0.132, -2.128e-2
0.133, -2.130e-2
0.134, -2.133e-2
0.135, -2.135e-2
0.136, -2.138e-2
0.137, -2.141e-2
0.138, -2.144e-2
0.139, -2.146e-2
0.140, -2.149e-2
0.141, -2.151e-2
0.142, -2.155e-2
0.143, -2.157e-2
0.144, -2.160e-2
0.145, -2.162e-2
0.146, -2.166e-2
0.147, -2.168e-2
0.148, -2.171e-2
0.149, -2.173e-2
0.150, -2.176e-2
0.151, -2.179e-2
0.152, -2.182e-2
0.153, -2.184e-2
0.154, -2.188e-2
0.155, -2.190e-2
0.156, -2.193e-2
0.157, -2.195e-2
0.158, -2.198e-2
0.159, -2.201e-2
0.160, -2.204e-2
0.161, -2.206e-2
0.162, -2.209e-2
0.163, -2.212e-2
0.164, -2.215e-2
0.165, -2.217e-2
0.166, -2.220e-2
0.167, -2.223e-2
0.168, -2.226e-2
0.169, -2.228e-2
0.170, -2.232e-2
0.171, -2.234e-2
0.172, -2.237e-2
0.173, -2.239e-2
0.174, -2.242e-2
0.175, -2.245e-2
0.176, -2.248e-2
0.177, -2.250e-2
0.178, -2.253e-2
0.179, -2.256e-2
0.180, -2.259e-2
0.181, -2.261e-2
0.182, -2.264e-2
0.183, -2.267e-2
0.184, -2.270e-2
0.185, -2.272e-2
0.186, -2.275e-2
0.187, -2.278e-2
0.188, -2.281e-2
0.189, -2.283e-2
0.190, -2.286e-2
0.191, -2.288e-2
0.192, -2.292e-2
0.193, -2.294e-2
0.194, -2.297e-2
0.195, -2.300e-2
0.196, -2.303e-2
0.197, -2.305e-2
0.198, -2.308e-2
0.199, -2.311e-2
0.200, -2.314e-2
0.201, -2.316e-2
0.202, -2.320e-2
0.203, -2.322e-2
0.204, -2.325e-2
0.205, -2.328e-2
0.206, -2.331e-2
0.207, -2.333e-2
0.208, -2.336e-2
0.209, -2.338e-2
0.210, -2.342e-2
0.211, -2.344e-2
0.212, -2.347e-2
0.213, -2.350e-2
0.214, -2.353e-2
0.215, -2.355e-2
0.216, -2.358e-2
0.217, -2.360e-2
0.218, -2.364e-2
0.219, -2.366e-2
0.220, -2.369e-2
0.221, -2.371e-2
0.222, -2.374e-2
0.223, -2.377e-2
0.224, -2.380e-2
0.225, -2.382e-2
0.226, -2.386e-2
0.227, -2.388e-2
0.228, -2.391e-2
0.229, -2.393e-2
0.230, -2.397e-2
0.231, -2.399e-2
0.232, -2.402e-2
0.233, -2.404e-2
0.234, -2.408e-2
0.235, -2.410e-2
0.236, -2.413e-2
0.237, -2.416e-2
0.238, -2.419e-2
0.239, -2.421e-2
0.240, -2.424e-2
0.241, -2.427e-2
0.242, -2.430e-2
0.243, -2.432e-2
0.244, -2.435e-2
0.245, -2.438e-2
0.246, -2.441e-2
0.247, -2.443e-2
0.248, -2.446e-2
0.249, -2.449e-2
0.250, -2.452e-2
0.251, -2.454e-2
0.252, -2.457e-2
0.253, -2.459e-2
0.254, -2.463e-2
0.255, -2.465e-2
0.256, -2.468e-2
0.257, -2.471e-2
0.258, -2.474e-2
0.259, -2.476e-2
0.260, -2.479e-2
0.261, -2.481e-2
0.262, -2.485e-2
0.263, -2.487e-2
0.264, -2.490e-2
0.265, -2.493e-2
0.266, -2.496e-2
0.267, -2.498e-2
0.268, -2.502e-2
0.269, -2.504e-2
0.270, -2.507e-2
0.271, -2.509e-2
0.272, -2.512e-2
0.273, -2.514e-2
0.274, -2.518e-2
0.275, -2.520e-2
0.276, -2.523e-2
0.277, -2.526e-2
0.278, -2.529e-2
0.279, -2.531e-2
0.280, -2.534e-2
0.281, -2.537e-2
0.282, -2.540e-2
0.283, -2.542e-2
0.284, -2.545e-2
0.285, -2.548e-2
0.286, -2.551e-2
0.287, -2.553e-2
0.288, -2.557e-2
0.289, -2.559e-2
0.290, -2.562e-2
0.291, -2.565e-2
0.292, -2.568e-2
0.293, -2.570e-2
0.294, -2.573e-2
0.295, -2.575e-2
0.296, -2.578e-2
0.297, -2.581e-2
0.298, -2.584e-2
0.299, -2.586e-2
0.300, -2.590e-2
0.301, -2.592e-2
0.302, -2.595e-2
0.303, -2.597e-2
0.304, -2.601e-2
0.305, -2.603e-2
0.306, -2.606e-2
0.307, -2.609e-2
0.308, -2.612e-2
0.309, -2.615e-2
0.310, -2.618e-2
0.311, -2.620e-2
0.312, -2.623e-2
0.313, -2.625e-2
0.314, -2.629e-2
0.315, -2.631e-2
0.316, -2.634e-2
0.317, -2.637e-2
0.318, -2.640e-2
0.319, -2.642e-2
0.320, -2.646e-2
0.321, -2.648e-2
0.322, -2.651e-2
0.323, -2.653e-2
0.324, -2.657e-2
0.325, -2.659e-2
0.326, -2.662e-2
0.327, -2.665e-2
0.328, -2.668e-2
0.329, -2.670e-2
0.330, -2.673e-2
0.331, -2.675e-2
0.332, -2.679e-2
0.333, -2.681e-2
0.334, -2.684e-2
0.335, -2.687e-2
0.336, -2.690e-2
0.337, -2.692e-2
0.338, -2.696e-2
0.339, -2.698e-2
0.340, -2.701e-2
0.341, -2.704e-2
0.342, -2.707e-2
0.343, -2.709e-2
0.344, -2.712e-2
0.345, -2.715e-2
0.346, -2.718e-2
0.347, -2.720e-2
0.348, -2.724e-2
0.349, -2.726e-2
0.350, -2.729e-2
0.351, -2.731e-2
0.352, -2.735e-2
0.353, -2.737e-2
0.354, -2.740e-2
0.355, -2.742e-2
0.356, -2.746e-2
0.357, -2.748e-2
0.358, -2.751e-2
0.359, -2.754e-2
0.360, -2.757e-2
0.361, -2.759e-2
0.362, -2.763e-2
0.363, -2.765e-2
0.364, -2.768e-2
0.365, -2.770e-2
0.366, -2.774e-2
0.367, -2.776e-2
0.368, -2.779e-2
0.369, -2.782e-2
0.370, -2.785e-2
0.371, -2.787e-2
0.372, -2.790e-2
0.373, -2.793e-2
0.374, -2.796e-2
0.375, -2.798e-2
0.376, -2.801e-2
0.377, -2.804e-2
0.378, -2.807e-2
0.379, -2.809e-2
0.380, -2.813e-2
0.381, -2.815e-2
0.382, -2.818e-2
0.383, -2.821e-2
0.384, -2.824e-2
0.385, -2.826e-2
0.386, -2.829e-2
0.387, -2.832e-2
0.388, -2.835e-2
0.389, -2.837e-2
0.390, -2.840e-2
0.391, -2.843e-2
0.392, -2.846e-2
0.393, -2.849e-2
0.394, -2.852e-2
0.395, -2.854e-2
0.396, -2.857e-2
0.397, -2.860e-2
0.398, -2.863e-2
0.399, -2.865e-2
0.400, -2.868e-2
0.401, -2.871e-2
0.402, -2.874e-2
0.403, -2.876e-2
0.404, -2.880e-2
0.405, -2.882e-2
0.406, -2.885e-2
0.407, -2.887e-2
0.408, -2.890e-2
0.409, -2.893e-2
0.410, -2.897e-2
0.411, -2.899e-2
0.412, -2.902e-2
0.413, -2.904e-2
0.414, -2.907e-2
0.415, -2.910e-2
0.416, -2.913e-2
0.417, -2.915e-2
0.418, -2.918e-2
0.419, -2.921e-2
0.420, -2.924e-2
0.421, -2.926e-2
0.422, -2.929e-2
0.423, -2.932e-2
0.424, -2.935e-2
0.425, -2.937e-2
0.426, -2.940e-2
0.427, -2.943e-2
0.428, -2.946e-2
0.429, -2.949e-2
0.430, -2.952e-2
0.431, -2.954e-2
0.432, -2.958e-2
0.433, -2.960e-2
0.434, -2.963e-2
0.435, -2.965e-2
0.436, -2.969e-2
0.437, -2.971e-2
0.438, -2.974e-2
0.439, -2.977e-2
0.440, -2.980e-2
0.441, -2.983e-2
0.442, -2.986e-2
0.443, -2.988e-2
0.444, -2.992e-2
0.445, -2.994e-2
0.446, -2.997e-2
0.447, -3.000e-2
0.448, -3.003e-2
0.449, -3.006e-2
0.450, -3.009e-2
0.451, -3.011e-2
0.452, -3.015e-2
0.453, -3.017e-2
0.454, -3.020e-2
0.455, -3.023e-2
0.456, -3.026e-2
0.457, -3.029e-2
0.458, -3.032e-2
0.459, -3.035e-2
0.460, -3.038e-2
0.461, -3.041e-2
0.462, -3.044e-2
0.463, -3.047e-2
0.464, -3.050e-2
0.465, -3.053e-2
0.466, -3.056e-2
0.467, -3.059e-2
0.468, -3.062e-2
0.469, -3.065e-2
0.470, -3.068e-2
0.471, -3.071e-2
0.472, -3.075e-2
0.473, -3.077e-2
0.474, -3.081e-2
0.475, -3.084e-2
0.476, -3.087e-2
0.477, -3.090e-2
0.478, -3.093e-2
0.479, -3.096e-2
0.480, -3.100e-2
0.481, -3.103e-2
0.482, -3.106e-2
0.483, -3.109e-2
0.484, -3.113e-2
0.485, -3.115e-2
0.486, -3.119e-2
0.487, -3.122e-2
0.488, -3.126e-2
0.489, -3.128e-2
0.490, -3.132e-2
0.491, -3.134e-2
0.492, -3.138e-2
0.493, -3.141e-2
0.494, -3.145e-2
0.495, -3.148e-2
0.496, -3.152e-2
0.497, -3.154e-2
0.498, -3.158e-2
0.499, -3.161e-2
0.500, -3.165e-2
0.501, -3.168e-2
0.502, -3.171e-2
0.503, -3.174e-2
0.504, -3.178e-2
0.505, -3.181e-2
0.506, -3.185e-2
0.507, -3.188e-2
0.508, -3.192e-2
0.509, -3.195e-2
0.510, -3.199e-2
0.511, -3.202e-2
0.512, -3.206e-2
0.513, -3.209e-2
0.514, -3.213e-2
0.515, -3.216e-2
0.516, -3.219e-2
0.517, -3.222e-2
0.518, -3.226e-2
0.519, -3.229e-2
0.520, -3.233e-2
0.521, -3.236e-2
0.522, -3.240e-2
0.523, -3.243e-2
0.524, -3.247e-2
0.525, -3.250e-2
0.526, -3.253e-2
0.527, -3.256e-2
0.528, -3.260e-2
0.529, -3.263e-2
0.530, -3.267e-2
0.531, -3.270e-2
0.532, -3.273e-2
0.533, -3.276e-2
0.534, -3.280e-2
0.535, -3.283e-2
0.536, -3.287e-2
0.537, -3.290e-2
0.538, -3.293e-2
0.539, -3.296e-2
0.540, -3.300e-2
0.541, -3.302e-2
0.542, -3.306e-2
0.543, -3.309e-2
0.544, -3.312e-2
0.545, -3.315e-2
0.546, -3.319e-2
0.547, -3.322e-2
0.548, -3.325e-2
0.549, -3.328e-2
0.550, -3.332e-2
0.551, -3.335e-2
0.552, -3.338e-2
0.553, -3.341e-2
0.554, -3.345e-2
0.555, -3.347e-2
0.556, -3.352e-2
0.557, -3.354e-2
0.558, -3.358e-2
0.559, -3.361e-2
0.560, -3.364e-2
0.561, -3.367e-2
0.562, -3.370e-2
0.563, -3.373e-2
0.564, -3.377e-2
0.565, -3.379e-2
0.566, -3.382e-2
0.567, -3.385e-2
0.568, -3.388e-2
0.569, -3.391e-2
0.570, -3.394e-2
0.571, -3.396e-2
0.572, -3.400e-2
0.573, -3.402e-2
0.574, -3.406e-2
0.575, -3.408e-2
0.576, -3.411e-2
0.577, -3.414e-2
0.578, -3.417e-2
0.579, -3.419e-2
0.580, -3.422e-2
0.581, -3.425e-2
0.582, -3.428e-2
0.583, -3.430e-2
0.584, -3.433e-2
0.585, -3.435e-2
0.586, -3.438e-2
0.587, -3.440e-2
0.588, -3.443e-2
0.589, -3.445e-2
0.590, -3.448e-2
0.591, -3.450e-2
0.592, -3.453e-2
0.593, -3.455e-2
0.594, -3.458e-2
0.595, -3.460e-2
0.596, -3.463e-2
0.597, -3.465e-2
0.598, -3.468e-2
0.599, -3.470e-2
0.600, -3.473e-2
0.601, -3.475e-2
0.602, -3.478e-2
0.603, -3.480e-2
0.604, -3.482e-2
0.605, -3.484e-2
0.606, -3.487e-2
0.607, -3.489e-2
0.608, -3.491e-2
0.609, -3.493e-2
0.610, -3.496e-2
0.611, -3.497e-2
0.612, -3.500e-2
0.613, -3.502e-2
0.614, -3.504e-2
0.615, -3.506e-2
0.616, -3.508e-2
0.617, -3.510e-2
0.618, -3.513e-2
0.619, -3.515e-2
0.620, -3.517e-2
0.621, -3.519e-2
0.622, -3.522e-2
0.623, -3.524e-2
0.624, -3.526e-2
0.625, -3.527e-2
0.626, -3.530e-2
0.627, -3.532e-2
0.628, -3.534e-2
0.629, -3.536e-2
0.630, -3.538e-2
0.631, -3.540e-2
0.632, -3.542e-2
0.633, -3.544e-2
0.634, -3.547e-2
0.635, -3.548e-2
0.636, -3.550e-2
0.637, -3.552e-2
0.638, -3.554e-2
0.639, -3.556e-2
0.640, -3.558e-2
0.641, -3.560e-2
0.642, -3.562e-2
0.643, -3.564e-2
0.644, -3.566e-2
0.645, -3.567e-2
0.646, -3.570e-2
0.647, -3.571e-2
0.648, -3.573e-2
0.649, -3.575e-2
0.650, -3.577e-2
0.651, -3.579e-2
0.652, -3.581e-2
0.653, -3.582e-2
0.654, -3.585e-2
0.655, -3.586e-2
0.656, -3.588e-2
0.657, -3.590e-2
0.658, -3.592e-2
0.659, -3.593e-2
0.660, -3.595e-2
0.661, -3.597e-2
0.662, -3.599e-2
0.663, -3.600e-2
0.664, -3.602e-2
0.665, -3.604e-2
0.666, -3.606e-2
0.667, -3.607e-2
0.668, -3.610e-2
0.669, -3.611e-2
0.670, -3.613e-2
0.671, -3.614e-2
0.672, -3.616e-2
0.673, -3.618e-2
0.674, -3.620e-2
0.675, -3.621e-2
0.676, -3.623e-2
0.677, -3.625e-2
0.678, -3.627e-2
0.679, -3.628e-2
0.680, -3.630e-2
0.681, -3.631e-2
0.682, -3.633e-2
0.683, -3.635e-2
0.684, -3.637e-2
0.685, -3.638e-2
0.686, -3.640e-2
0.687, -3.642e-2
0.688, -3.643e-2
0.689, -3.645e-2
0.690, -3.647e-2
0.691, -3.649e-2
0.692, -3.651e-2
0.693, -3.652e-2
0.694, -3.654e-2
0.695, -3.655e-2
0.696, -3.657e-2
0.697, -3.659e-2
0.698, -3.661e-2
0.699, -3.662e-2
0.700, -3.664e-2
0.701, -3.665e-2
0.702, -3.667e-2
0.703, -3.669e-2
0.704, -3.671e-2
0.705, -3.672e-2
0.706, -3.674e-2
0.707, -3.675e-2
0.708, -3.677e-2
0.709, -3.679e-2
0.710, -3.681e-2
0.711, -3.682e-2
0.712, -3.684e-2
0.713, -3.685e-2
0.714, -3.687e-2
0.715, -3.688e-2
0.716, -3.690e-2
0.717, -3.692e-2
0.718, -3.694e-2
0.719, -3.695e-2
0.720, -3.697e-2
0.721, -3.698e-2
0.722, -3.700e-2
0.723, -3.702e-2
0.724, -3.704e-2
0.725, -3.705e-2
0.726, -3.707e-2
0.727, -3.708e-2
0.728, -3.710e-2
0.729, -3.711e-2
0.730, -3.713e-2
0.731, -3.715e-2
0.732, -3.717e-2
0.733, -3.718e-2
0.734, -3.720e-2
0.735, -3.721e-2
0.736, -3.723e-2
0.737, -3.724e-2
0.738, -3.726e-2
0.739, -3.728e-2
0.740, -3.730e-2
0.741, -3.731e-2
0.742, -3.733e-2
0.743, -3.735e-2
0.744, -3.737e-2
0.745, -3.738e-2
0.746, -3.740e-2
0.747, -3.741e-2
0.748, -3.743e-2
0.749, -3.745e-2
0.750, -3.746e-2
0.751, -3.748e-2
0.752, -3.750e-2
0.753, -3.751e-2
0.754, -3.753e-2
0.755, -3.754e-2
0.756, -3.756e-2
0.757, -3.757e-2
0.758, -3.759e-2
0.759, -3.761e-2
0.760, -3.763e-2
0.761, -3.764e-2
0.762, -3.766e-2
0.763, -3.768e-2
0.764, -3.770e-2
0.765, -3.771e-2
0.766, -3.773e-2
0.767, -3.774e-2
0.768, -3.776e-2
0.769, -3.778e-2
0.770, -3.780e-2
0.771, -3.781e-2
0.772, -3.783e-2
0.773, -3.784e-2
0.774, -3.786e-2
0.775, -3.787e-2
0.776, -3.789e-2
0.777, -3.790e-2
0.778, -3.792e-2
0.779, -3.794e-2
0.780, -3.796e-2
0.781, -3.797e-2
0.782, -3.799e-2
0.783, -3.800e-2
0.784, -3.802e-2
0.785, -3.803e-2
0.786, -3.805e-2
0.787, -3.806e-2
0.788, -3.808e-2
0.789, -3.810e-2
0.790, -3.811e-2
0.791, -3.813e-2
0.792, -3.814e-2
0.793, -3.816e-2
0.794, -3.818e-2
0.795, -3.819e-2
0.796, -3.821e-2
0.797, -3.822e-2
0.798, -3.824e-2
0.799, -3.826e-2
0.800, -3.814e-2
0.799, -3.781e-2
0.798, -3.752e-2
0.797, -3.727e-2
0.796, -3.703e-2
0.795, -3.681e-2
0.794, -3.659e-2
0.793, -3.637e-2
0.792, -3.617e-2
0.791, -3.597e-2
0.790, -3.578e-2
0.789, -3.558e-2
0.788, -3.540e-2
0.787, -3.521e-2
0.786, -3.504e-2
0.785, -3.486e-2
0.784, -3.469e-2
0.783, -3.451e-2
0.782, -3.435e-2
0.781, -3.418e-2
0.780, -3.402e-2
0.779, -3.385e-2
0.778, -3.369e-2
0.777, -3.354e-2
0.776, -3.338e-2
0.775, -3.322e-2
0.774, -3.307e-2
0.773, -3.292e-2
0.772, -3.277e-2
0.771, -3.263e-2
0.770, -3.248e-2
0.769, -3.233e-2
0.768, -3.219e-2
0.767, -3.204e-2
0.766, -3.190e-2
0.765, -3.176e-2
0.764, -3.162e-2
0.763, -3.148e-2
0.762, -3.135e-2
0.761, -3.121e-2
0.760, -3.108e-2
0.759, -3.094e-2
0.758, -3.081e-2
0.757, -3.067e-2
0.756, -3.054e-2
0.755, -3.041e-2
0.754, -3.028e-2
0.753, -3.015e-2
0.752, -3.003e-2
0.751, -2.990e-2
0.750, -2.978e-2
0.749, -2.965e-2
0.748, -2.953e-2
0.747, -2.940e-2
0.746, -2.928e-2
0.745, -2.916e-2
0.744, -2.904e-2
0.743, -2.892e-2
0.742, -2.881e-2
0.741, -2.869e-2
0.740, -2.857e-2
0.739, -2.845e-2
0.738, -2.834e-2
0.737, -2.822e-2
0.736, -2.810e-2
0.735, -2.798e-2
0.734, -2.787e-2
0.733, -2.776e-2
0.732, -2.765e-2
0.731, -2.753e-2
0.730, -2.742e-2
0.729, -2.731e-2
0.728, -2.720e-2
0.727, -2.708e-2
0.726, -2.697e-2
0.725, -2.686e-2
0.724, -2.675e-2
0.723, -2.664e-2
0.722, -2.654e-2
0.721, -2.643e-2
0.720, -2.633e-2
0.719, -2.622e-2
0.718, -2.611e-2
0.717, -2.600e-2
0.716, -2.590e-2
0.715, -2.579e-2
0.714, -2.569e-2
0.713, -2.559e-2
0.712, -2.549e-2
0.711, -2.538e-2
0.710, -2.528e-2
0.709, -2.518e-2
0.708, -2.508e-2
0.707, -2.498e-2
0.706, -2.488e-2
0.705, -2.478e-2
0.704, -2.468e-2
0.703, -2.458e-2
0.702, -2.449e-2
0.701, -2.439e-2
0.700, -2.429e-2
0.699, -2.419e-2
0.698, -2.409e-2
0.697, -2.399e-2
0.696, -2.390e-2
0.695, -2.380e-2
0.694, -2.371e-2
0.693, -2.361e-2
0.692, -2.352e-2
0.691, -2.342e-2
0.690, -2.332e-2
0.689, -2.323e-2
0.688, -2.314e-2
0.687, -2.304e-2
0.686, -2.295e-2
0.685, -2.285e-2
0.684, -2.276e-2
0.683, -2.267e-2
0.682, -2.258e-2
0.681, -2.248e-2
0.680, -2.239e-2
0.679, -2.230e-2
0.678, -2.221e-2
0.677, -2.212e-2
0.676, -2.203e-2
0.675, -2.194e-2
0.674, -2.185e-2
0.673, -2.176e-2
0.672, -2.167e-2
0.671, -2.158e-2
0.670, -2.149e-2
0.669, -2.140e-2
0.668, -2.132e-2
0.667, -2.123e-2
0.666, -2.114e-2
0.665, -2.106e-2
0.664, -2.097e-2
0.663, -2.088e-2
0.662, -2.080e-2
0.661, -2.071e-2
0.660, -2.062e-2
0.659, -2.054e-2
0.658, -2.045e-2
0.657, -2.037e-2
0.656, -2.028e-2
0.655, -2.020e-2
0.654, -2.011e-2
0.653, -2.003e-2
0.652, -1.994e-2
0.651, -1.986e-2
0.650, -1.977e-2
0.649, -1.969e-2
0.648, -1.961e-2
0.647, -1.952e-2
0.646, -1.944e-2
0.645, -1.936e-2
0.644, -1.929e-2
0.643, -1.921e-2
0.642, -1.913e-2
0.641, -1.905e-2
0.640, -1.896e-2
0.639, -1.888e-2
0.638, -1.880e-2
0.637, -1.872e-2
0.636, -1.864e-2
0.635, -1.856e-2
0.634, -1.848e-2
0.633, -1.840e-2
0.632, -1.832e-2
0.631, -1.824e-2
0.630, -1.816e-2
0.629, -1.808e-2
0.628, -1.800e-2
0.627, -1.792e-2
0.626, -1.784e-2
0.625, -1.776e-2
0.624, -1.768e-2
0.623, -1.760e-2
0.622, -1.752e-2
0.621, -1.744e-2
0.620, -1.736e-2
0.619, -1.729e-2
0.618, -1.721e-2
0.617, -1.714e-2
0.616, -1.706e-2
0.615, -1.698e-2
0.614, -1.690e-2
0.613, -1.682e-2
0.612, -1.675e-2
0.611, -1.667e-2
0.610, -1.659e-2
0.609, -1.651e-2
0.608, -1.644e-2
0.607, -1.636e-2
0.606, -1.628e-2
0.605, -1.621e-2
0.604, -1.613e-2
0.603, -1.605e-2
0.602, -1.598e-2
0.601, -1.590e-2
0.600, -1.583e-2
0.599, -1.575e-2
0.598, -1.567e-2
0.597, -1.560e-2
0.596, -1.553e-2
0.595, -1.545e-2
0.594, -1.538e-2
0.593, -1.530e-2
0.592, -1.522e-2
0.591, -1.515e-2
0.590, -1.507e-2
0.589, -1.500e-2
0.588, -1.492e-2
0.587, -1.485e-2
0.586, -1.477e-2
0.585, -1.470e-2
0.584, -1.462e-2
0.583, -1.455e-2
0.582, -1.447e-2
0.581, -1.440e-2
0.580, -1.433e-2
0.579, -1.425e-2
0.578, -1.418e-2
0.577, -1.411e-2
0.576, -1.403e-2
0.575, -1.396e-2
0.574, -1.389e-2
0.573, -1.381e-2
0.572, -1.374e-2
0.571, -1.367e-2
0.570, -1.359e-2
0.569, -1.352e-2
0.568, -1.345e-2
0.567, -1.338e-2
0.566, -1.331e-2
0.565, -1.324e-2
0.564, -1.316e-2
0.563, -1.309e-2
0.562, -1.301e-2
0.561, -1.294e-2
0.560, -1.287e-2
0.559, -1.280e-2
0.558, -1.273e-2
0.557, -1.265e-2
0.556, -1.258e-2
0.555, -1.251e-2
0.554, -1.244e-2
0.553, -1.237e-2
0.552, -1.229e-2
0.551, -1.222e-2
0.550, -1.215e-2
0.549, -1.208e-2
0.548, -1.201e-2
0.547, -1.194e-2
0.546, -1.186e-2
0.545, -1.179e-2
0.544, -1.172e-2
0.543, -1.165e-2
0.542, -1.157e-2
0.541, -1.150e-2
0.540, -1.143e-2
0.539, -1.136e-2
0.538, -1.129e-2
0.537, -1.122e-2
0.536, -1.115e-2
0.535, -1.107e-2
0.534, -1.100e-2
0.533, -1.093e-2
0.532, -1.086e-2
0.531, -1.079e-2
0.530, -1.072e-2
0.529, -1.065e-2
0.528, -1.058e-2
0.527, -1.051e-2
0.526, -1.044e-2
0.525, -1.037e-2
0.524, -1.029e-2
0.523, -1.022e-2
0.522, -1.015e-2
0.521, -1.008e-2
0.520, -1.001e-2
0.519, -9.946e-3
0.518, -9.874e-3
0.517, -9.802e-3
0.516, -9.732e-3
0.515, -9.664e-3
0.514, -9.592e-3
0.513, -9.523e-3
0.512, -9.451e-3
0.511, -9.383e-3
0.510, -9.313e-3
0.509, -9.244e-3
0.508, -9.174e-3
0.507, -9.106e-3
0.506, -9.035e-3
0.505, -8.967e-3
0.504, -8.897e-3
0.503, -8.827e-3
0.502, -8.759e-3
0.501, -8.692e-3
0.500, -8.621e-3
0.499, -8.555e-3
0.498, -8.487e-3
0.497, -8.418e-3
0.496, -8.345e-3
0.495, -8.279e-3
0.494, -8.211e-3
0.493, -8.141e-3
0.492, -8.070e-3
0.491, -8.004e-3
0.490, -7.933e-3
0.489, -7.868e-3
0.488, -7.801e-3
0.487, -7.732e-3
0.486, -7.661e-3
0.485, -7.595e-3
0.484, -7.526e-3
0.483, -7.460e-3
0.482, -7.390e-3
0.481, -7.323e-3
0.480, -7.252e-3
0.479, -7.185e-3
0.478, -7.117e-3
0.477, -7.052e-3
0.476, -6.985e-3
0.475, -6.919e-3
0.474, -6.849e-3
0.473, -6.785e-3
0.472, -6.715e-3
0.471, -6.650e-3
0.470, -6.586e-3
0.469, -6.522e-3
0.468, -6.453e-3
0.467, -6.386e-3
0.466, -6.320e-3
0.465, -6.255e-3
0.464, -6.189e-3
0.463, -6.125e-3
0.462, -6.059e-3
0.461, -5.994e-3
0.460, -5.926e-3
0.459, -5.864e-3
0.458, -5.798e-3
0.457, -5.735e-3
0.456, -5.671e-3
0.455, -5.608e-3
0.454, -5.542e-3
0.453, -5.482e-3
0.452, -5.419e-3
0.451, -5.359e-3
0.450, -5.295e-3
0.449, -5.232e-3
0.448, -5.168e-3
0.447, -5.108e-3
0.446, -5.046e-3
0.445, -4.984e-3
0.444, -4.917e-3
0.443, -4.859e-3
0.442, -4.796e-3
0.441, -4.736e-3
0.440, -4.672e-3
0.439, -4.614e-3
0.438, -4.552e-3
0.437, -4.492e-3
0.436, -4.433e-3
0.435, -4.375e-3
0.434, -4.313e-3
0.433, -4.255e-3
0.432, -4.195e-3
0.431, -4.137e-3
0.430, -4.078e-3
0.429, -4.020e-3
0.428, -3.962e-3
0.427, -3.906e-3
0.426, -3.846e-3
0.425, -3.792e-3
0.424, -3.735e-3
0.423, -3.680e-3
0.422, -3.626e-3
0.421, -3.577e-3
0.420, -3.519e-3
0.419, -3.467e-3
0.418, -3.410e-3
0.417, -3.359e-3
0.416, -3.304e-3
0.415, -3.250e-3
0.414, -3.196e-3
0.413, -3.147e-3
0.412, -3.094e-3
0.411, -3.043e-3
0.410, -2.985e-3
0.409, -2.930e-3
0.408, -2.882e-3
0.407, -2.831e-3
0.406, -2.781e-3
0.405, -2.731e-3
0.404, -2.679e-3
0.403, -2.629e-3
0.402, -2.578e-3
0.401, -2.529e-3
0.400, -2.477e-3
0.399, -2.430e-3
0.398, -2.380e-3
0.397, -2.330e-3
0.396, -2.277e-3
0.395, -2.231e-3
0.394, -2.178e-3
0.393, -2.132e-3
0.392, -2.081e-3
0.391, -2.033e-3
0.390, -1.982e-3
0.389, -1.935e-3
0.388, -1.884e-3
0.387, -1.837e-3
0.386, -1.787e-3
0.385, -1.740e-3
0.384, -1.689e-3
0.383, -1.643e-3
0.382, -1.595e-3
0.381, -1.550e-3
0.380, -1.502e-3
0.379, -1.457e-3
0.378, -1.407e-3
0.377, -1.361e-3
0.376, -1.310e-3
0.375, -1.265e-3
0.374, -1.215e-3
0.373, -1.170e-3
0.372, -1.120e-3
0.371, -1.075e-3
0.370, -1.024e-3
0.369, -9.815e-4
0.368, -9.310e-4
0.367, -8.866e-4
0.366, -8.362e-4
0.365, -7.914e-4
0.364, -7.418e-4
0.363, -6.980e-4
0.362, -6.490e-4
0.361, -6.041e-4
0.360, -5.555e-4
0.359, -5.108e-4
0.358, -4.591e-4
0.357, -4.137e-4
0.356, -3.653e-4
0.355, -3.211e-4
0.354, -2.731e-4
0.353, -2.303e-4
0.352, -1.804e-4
0.351, -1.367e-4
0.350, -8.954e-5
0.349, -4.546e-5
0.348, 5.596e-6
0.347, 4.723e-5
0.346, 9.681e-5
0.345, 1.384e-4
0.344, 1.863e-4
0.343, 2.301e-4
0.342, 2.777e-4
0.341, 3.223e-4
0.340, 3.729e-4
0.339, 4.187e-4
0.338, 4.687e-4
0.337, 5.121e-4
0.336, 5.593e-4
0.335, 6.036e-4
0.334, 6.524e-4
0.333, 6.971e-4
0.332, 7.473e-4
0.331, 7.898e-4
0.330, 8.388e-4
0.329, 8.829e-4
0.328, 9.306e-4
0.327, 9.745e-4
0.326, 1.023e-3
0.325, 1.066e-3
0.324, 1.116e-3
0.323, 1.159e-3
0.322, 1.208e-3
0.321, 1.250e-3
0.320, 1.298e-3
0.319, 1.342e-3
0.318, 1.389e-3
0.317, 1.430e-3
0.316, 1.481e-3
0.315, 1.523e-3
0.314, 1.573e-3
0.313, 1.616e-3
0.312, 1.666e-3
0.311, 1.709e-3
0.310, 1.756e-3
0.309, 1.799e-3
0.308, 1.847e-3
0.307, 1.892e-3
0.306, 1.941e-3
0.305, 1.984e-3
0.304, 2.032e-3
0.303, 2.075e-3
0.302, 2.120e-3
0.301, 2.166e-3
0.300, 2.215e-3
0.299, 2.256e-3
0.298, 2.302e-3
0.297, 2.342e-3
0.296, 2.389e-3
0.295, 2.432e-3
0.294, 2.479e-3
0.293, 2.519e-3
0.292, 2.566e-3
0.291, 2.608e-3
0.290, 2.657e-3
0.289, 2.699e-3
0.288, 2.749e-3
0.287, 2.792e-3
0.286, 2.840e-3
0.285, 2.881e-3
0.284, 2.930e-3
0.283, 2.973e-3
0.282, 3.022e-3
0.281, 3.067e-3
0.280, 3.113e-3
0.279, 3.155e-3
0.278, 3.202e-3
0.277, 3.242e-3
0.276, 3.290e-3
0.275, 3.332e-3
0.274, 3.379e-3
0.273, 3.423e-3
0.272, 3.470e-3
0.271, 3.510e-3
0.270, 3.555e-3
0.269, 3.597e-3
0.268, 3.644e-3
0.267, 3.683e-3
0.266, 3.731e-3
0.265, 3.772e-3
0.264, 3.816e-3
0.263, 3.859e-3
0.262, 3.908e-3
0.261, 3.948e-3
0.260, 3.995e-3
0.259, 4.034e-3
0.258, 4.081e-3
0.257, 4.123e-3
0.256, 4.172e-3
0.255, 4.214e-3
0.254, 4.261e-3
0.253, 4.302e-3
0.252, 4.349e-3
0.251, 4.386e-3
0.250, 4.434e-3
0.249, 4.474e-3
0.248, 4.520e-3
0.247, 4.561e-3
0.246, 4.607e-3
0.245, 4.647e-3
0.244, 4.696e-3
0.243, 4.733e-3
0.242, 4.779e-3
0.241, 4.818e-3
0.240, 4.862e-3
0.239, 4.904e-3
0.238, 4.950e-3
0.237, 4.989e-3
0.236, 5.035e-3
0.235, 5.072e-3
0.234, 5.119e-3
0.233, 5.157e-3
0.232, 5.201e-3
0.231, 5.241e-3
0.230, 5.284e-3
0.229, 5.322e-3
0.228, 5.369e-3
0.227, 5.408e-3
0.226, 5.453e-3
0.225, 5.490e-3
0.224, 5.535e-3
0.223, 5.575e-3
0.222, 5.617e-3
0.221, 5.655e-3
0.220, 5.699e-3
0.219, 5.732e-3
0.218, 5.776e-3
0.217, 5.813e-3
0.216, 5.858e-3
0.215, 5.896e-3
0.214, 5.939e-3
0.213, 5.974e-3
0.212, 6.019e-3
0.211, 6.056e-3
0.210, 6.100e-3
0.209, 6.135e-3
0.208, 6.177e-3
0.207, 6.214e-3
0.206, 6.255e-3
0.205, 6.292e-3
0.204, 6.334e-3
0.203, 6.369e-3
0.202, 6.412e-3
0.201, 6.448e-3
0.200, 6.487e-3
0.199, 6.522e-3
0.198, 6.566e-3
0.197, 6.601e-3
0.196, 6.643e-3
0.195, 6.677e-3
0.194, 6.719e-3
0.193, 6.751e-3
0.192, 6.795e-3
0.191, 6.832e-3
0.190, 6.873e-3
0.189, 6.907e-3
0.188, 6.947e-3
0.187, 6.978e-3
0.186, 7.019e-3
0.185, 7.055e-3
0.184, 7.095e-3
0.183, 7.130e-3
0.182, 7.168e-3
0.181, 7.200e-3
0.180, 7.242e-3
0.179, 7.277e-3
0.178, 7.318e-3
0.177, 7.353e-3
0.176, 7.393e-3
0.175, 7.426e-3
0.174, 7.465e-3
0.173, 7.500e-3
0.172, 7.542e-3
0.171, 7.574e-3
0.170, 7.614e-3
0.169, 7.649e-3
0.168, 7.689e-3
0.167, 7.722e-3
0.166, 7.762e-3
0.165, 7.794e-3
0.164, 7.835e-3
0.163, 7.865e-3
0.162, 7.906e-3
0.161, 7.938e-3
0.160, 7.980e-3
0.159, 8.013e-3
0.158, 8.055e-3
0.157, 8.086e-3
0.156, 8.126e-3
0.155, 8.157e-3
0.154, 8.198e-3
0.153, 8.233e-3
0.152, 8.273e-3
0.151, 8.306e-3
0.150, 8.347e-3
0.149, 8.379e-3
0.148, 8.419e-3
0.147, 8.453e-3
0.146, 8.493e-3
0.145, 8.526e-3
0.144, 8.566e-3
0.143, 8.599e-3
0.142, 8.637e-3
0.141, 8.669e-3
0.140, 8.710e-3
0.139, 8.742e-3
0.138, 8.783e-3
0.137, 8.816e-3
0.136, 8.855e-3
0.135, 8.888e-3
0.134, 8.927e-3
0.133, 8.958e-3
0.132, 8.999e-3
0.131, 9.030e-3
0.130, 9.071e-3
0.129, 9.101e-3
0.128, 9.140e-3
0.127, 9.170e-3
0.126, 9.210e-3
0.125, 9.242e-3
0.124, 9.285e-3
0.123, 9.315e-3
0.122, 9.355e-3
0.121, 9.387e-3
0.120, 9.427e-3
0.119, 9.459e-3
0.118, 9.497e-3
0.117, 9.528e-3
0.116, 9.569e-3
0.115, 9.600e-3
0.114, 9.640e-3
0.113, 9.670e-3
0.112, 9.709e-3
0.111, 9.741e-3
0.110, 9.779e-3
0.109, 9.812e-3
0.108, 9.853e-3
0.107, 9.881e-3
0.106, 9.921e-3
0.105, 9.952e-3
0.104, 9.991e-3
0.103, 1.002e-2
0.102, 1.006e-2
0.101, 1.009e-2
0.100, 1.013e-2
0.099, 1.016e-2
0.098, 1.020e-2
0.097, 1.023e-2
0.096, 1.027e-2
0.095, 1.030e-2
0.094, 1.034e-2
0.093, 1.037e-2
0.092, 1.041e-2
0.091, 1.044e-2
0.090, 1.047e-2
0.089, 1.051e-2
0.088, 1.055e-2
0.087, 1.058e-2
0.086, 1.061e-2
0.085, 1.064e-2
0.084, 1.068e-2
0.083, 1.071e-2
0.082, 1.075e-2
0.081, 1.078e-2
0.080, 1.082e-2
0.079, 1.085e-2
0.078, 1.089e-2
0.077, 1.092e-2
0.076, 1.096e-2
0.075, 1.099e-2
0.074, 1.103e-2
0.073, 1.106e-2
0.072, 1.110e-2
0.071, 1.113e-2
0.070, 1.117e-2
0.069, 1.120e-2
0.068, 1.123e-2
0.067, 1.126e-2
0.066, 1.130e-2
0.065, 1.133e-2
0.064, 1.137e-2
0.063, 1.140e-2
0.062, 1.144e-2
0.061, 1.147e-2
0.060, 1.151e-2
0.059, 1.153e-2
0.058, 1.157e-2
0.057, 1.160e-2
0.056, 1.164e-2
0.055, 1.167e-2
0.054, 1.171e-2
0.053, 1.174e-2
0.052, 1.177e-2
0.051, 1.181e-2
0.050, 1.185e-2
0.049, 1.187e-2
0.048, 1.191e-2
0.047, 1.194e-2
0.046, 1.198e-2
0.045, 1.201e-2
0.044, 1.204e-2
0.043, 1.207e-2
0.042, 1.210e-2
0.041, 1.212e-2
0.040, 1.216e-2
0.039, 1.219e-2
0.038, 1.222e-2
0.037, 1.226e-2
0.036, 1.230e-2
0.035, 1.232e-2
0.034, 1.236e-2
0.033, 1.239e-2
0.032, 1.242e-2
0.031, 1.246e-2
0.030, 1.249e-2
0.029, 1.252e-2
0.028, 1.256e-2
0.027, 1.259e-2
0.026, 1.263e-2
0.025, 1.265e-2
0.024, 1.269e-2
0.023, 1.272e-2
0.022, 1.276e-2
0.021, 1.279e-2
0.020, 1.282e-2
0.019, 1.285e-2
0.018, 1.289e-2
0.017, 1.292e-2
0.016, 1.295e-2
0.015, 1.298e-2
0.014, 1.302e-2
0.013, 1.305e-2
0.012, 1.308e-2
0.011, 1.311e-2
0.010, 1.315e-2
0.009, 1.318e-2
0.008, 1.322e-2
0.007, 1.324e-2
0.006, 1.328e-2
0.005, 1.331e-2
0.004, 1.335e-2
0.003, 1.337e-2
0.002, 1.341e-2
0.001, 1.344e-2
0.000, 1.349e-2
-0.001, 1.351e-2
-0.002, 1.355e-2
-0.003, 1.358e-2
-0.004, 1.361e-2
-0.005, 1.364e-2
-0.006, 1.368e-2
-0.007, 1.371e-2
-0.008, 1.374e-2
-0.009, 1.377e-2
-0.010, 1.380e-2
-0.011, 1.383e-2
-0.012, 1.387e-2
-0.013, 1.390e-2
-0.014, 1.393e-2
-0.015, 1.396e-2
-0.016, 1.400e-2
-0.017, 1.403e-2
-0.018, 1.406e-2
-0.019, 1.409e-2
-0.020, 1.413e-2
-0.021, 1.415e-2
-0.022, 1.419e-2
-0.023, 1.421e-2
-0.024, 1.425e-2
-0.025, 1.427e-2
-0.026, 1.431e-2
-0.027, 1.434e-2
-0.028, 1.438e-2
-0.029, 1.440e-2
-0.030, 1.444e-2
-0.031, 1.446e-2
-0.032, 1.450e-2
-0.033, 1.453e-2
-0.034, 1.456e-2
-0.035, 1.459e-2
-0.036, 1.463e-2
-0.037, 1.465e-2
-0.038, 1.469e-2
-0.039, 1.472e-2
-0.040, 1.475e-2
-0.041, 1.478e-2
-0.042, 1.482e-2
-0.043, 1.484e-2
-0.044, 1.488e-2
-0.045, 1.491e-2
-0.046, 1.495e-2
-0.047, 1.497e-2
-0.048, 1.501e-2
-0.049, 1.503e-2
-0.050, 1.507e-2
-0.051, 1.510e-2
-0.052, 1.513e-2
-0.053, 1.516e-2
-0.054, 1.520e-2
-0.055, 1.522e-2
-0.056, 1.526e-2
-0.057, 1.529e-2
-0.058, 1.532e-2
-0.059, 1.535e-2
-0.060, 1.539e-2
-0.061, 1.541e-2
-0.062, 1.545e-2
-0.063, 1.547e-2
-0.064, 1.551e-2
-0.065, 1.553e-2
-0.066, 1.557e-2
-0.067, 1.560e-2
-0.068, 1.563e-2
-0.069, 1.566e-2
-0.070, 1.570e-2
-0.071, 1.572e-2
-0.072, 1.576e-2
-0.073, 1.578e-2
-0.074, 1.582e-2
-0.075, 1.584e-2
-0.076, 1.588e-2
-0.077, 1.590e-2
-0.078, 1.594e-2
-0.079, 1.596e-2
-0.080, 1.600e-2
-0.081, 1.602e-2
-0.082, 1.606e-2
-0.083, 1.609e-2
-0.084, 1.613e-2
-0.085, 1.615e-2
-0.086, 1.619e-2
-0.087, 1.621e-2
-0.088, 1.625e-2
-0.089, 1.627e-2
-0.090, 1.631e-2
-0.091, 1.633e-2
-0.092, 1.637e-2
-0.093, 1.640e-2
-0.094, 1.643e-2
-0.095, 1.646e-2
-0.096, 1.649e-2
-0.097, 1.652e-2
-0.098, 1.656e-2
-0.099, 1.658e-2
-0.100, 1.662e-2
-0.101, 1.664e-2
-0.102, 1.668e-2
-0.103, 1.670e-2
-0.104, 1.674e-2
-0.105, 1.676e-2
-0.106, 1.680e-2
-0.107, 1.682e-2
-0.108, 1.686e-2
-0.109, 1.688e-2
-0.110, 1.692e-2
-0.111, 1.694e-2
-0.112, 1.698e-2
-0.113, 1.700e-2
-0.114, 1.704e-2
-0.115, 1.706e-2
-0.116, 1.710e-2
-0.117, 1.712e-2
-0.118, 1.716e-2
-0.119, 1.718e-2
-0.120, 1.721e-2
-0.121, 1.724e-2
-0.122, 1.728e-2
-0.123, 1.730e-2
-0.124, 1.734e-2
-0.125, 1.736e-2
-0.126, 1.739e-2
-0.127, 1.742e-2
-0.128, 1.745e-2
-0.129, 1.748e-2
-0.130, 1.751e-2
-0.131, 1.754e-2
-0.132, 1.757e-2
-0.133, 1.760e-2
-0.134, 1.763e-2
-0.135, 1.766e-2
-0.136, 1.769e-2
-0.137, 1.772e-2
-0.138, 1.775e-2
-0.139, 1.777e-2
-0.140, 1.781e-2
-0.141, 1.783e-2
-0.142, 1.787e-2
-0.143, 1.789e-2
-0.144, 1.793e-2
-0.145, 1.795e-2
-0.146, 1.799e-2
-0.147, 1.801e-2
-0.148, 1.805e-2
-0.149, 1.807e-2
-0.150, 1.810e-2
-0.151, 1.812e-2
-0.152, 1.815e-2
-0.153, 1.818e-2
-0.154, 1.821e-2
-0.155, 1.824e-2
-0.156, 1.827e-2
-0.157, 1.830e-2
-0.158, 1.833e-2
-0.159, 1.835e-2
-0.160, 1.839e-2
-0.161, 1.841e-2
-0.162, 1.845e-2
-0.163, 1.847e-2
-0.164, 1.851e-2
-0.165, 1.853e-2
-0.166, 1.856e-2
-0.167, 1.859e-2
-0.168, 1.862e-2
-0.169, 1.864e-2
-0.170, 1.868e-2
-0.171, 1.870e-2
-0.172, 1.874e-2
-0.173, 1.876e-2
-0.174, 1.880e-2
-0.175, 1.882e-2
-0.176, 1.885e-2
-0.177, 1.888e-2
-0.178, 1.891e-2
-0.179, 1.893e-2
-0.180, 1.897e-2
-0.181, 1.899e-2
-0.182, 1.902e-2
-0.183, 1.905e-2
-0.184, 1.908e-2
-0.185, 1.910e-2
-0.186, 1.914e-2
-0.187, 1.916e-2
-0.188, 1.920e-2
-0.189, 1.922e-2
-0.190, 1.925e-2
-0.191, 1.928e-2
-0.192, 1.931e-2
-0.193, 1.933e-2
-0.194, 1.937e-2
-0.195, 1.939e-2
-0.196, 1.942e-2
-0.197, 1.944e-2
-0.198, 1.948e-2
-0.199, 1.950e-2
-0.200, 1.954e-2
-0.201, 1.956e-2
-0.202, 1.959e-2
-0.203, 1.962e-2
-0.204, 1.965e-2
-0.205, 1.967e-2
-0.206, 1.971e-2
-0.207, 1.973e-2
-0.208, 1.976e-2
-0.209, 1.979e-2
-0.210, 1.982e-2
-0.211, 1.984e-2
-0.212, 1.988e-2
-0.213, 1.990e-2
-0.214, 1.993e-2
-0.215, 1.996e-2
-0.216, 1.999e-2
-0.217, 2.001e-2
-0.218, 2.005e-2
-0.219, 2.007e-2
-0.220, 2.010e-2
-0.221, 2.012e-2
-0.222, 2.016e-2
-0.223, 2.018e-2
-0.224, 2.021e-2
-0.225, 2.024e-2
-0.226, 2.027e-2
-0.227, 2.029e-2
-0.228, 2.033e-2
-0.229, 2.035e-2
-0.230, 2.038e-2
-0.231, 2.041e-2
-0.232, 2.044e-2
-0.233, 2.046e-2
-0.234, 2.049e-2
-0.235, 2.052e-2
-0.236, 2.055e-2
-0.237, 2.057e-2
-0.238, 2.060e-2
-0.239, 2.063e-2
-0.240, 2.066e-2
-0.241, 2.068e-2
-0.242, 2.072e-2
-0.243, 2.074e-2
-0.244, 2.077e-2
-0.245, 2.079e-2
-0.246, 2.083e-2
-0.247, 2.085e-2
-0.248, 2.088e-2
-0.249, 2.090e-2
-0.250, 2.093e-2
-0.251, 2.096e-2
-0.252, 2.099e-2
-0.253, 2.101e-2
-0.254, 2.104e-2
-0.255, 2.107e-2
-0.256, 2.110e-2
-0.257, 2.113e-2
-0.258, 2.116e-2
-0.259, 2.118e-2
-0.260, 2.121e-2
-0.261, 2.123e-2
-0.262, 2.127e-2
-0.263, 2.129e-2
-0.264, 2.132e-2
-0.265, 2.135e-2
-0.266, 2.138e-2
-0.267, 2.140e-2
-0.268, 2.143e-2
-0.269, 2.145e-2
-0.270, 2.148e-2
-0.271, 2.150e-2
-0.272, 2.153e-2
-0.273, 2.156e-2
-0.274, 2.159e-2
-0.275, 2.157e-2
-0.276, 2.159e-2
-0.277, 2.161e-2
-0.278, 2.164e-2
-0.279, 2.166e-2
-0.280, 2.169e-2
-0.281, 2.172e-2
-0.282, 2.175e-2
-0.283, 2.177e-2
-0.284, 2.180e-2
-0.285, 2.183e-2
-0.286, 2.186e-2
-0.287, 2.188e-2
-0.288, 2.191e-2
-0.289, 2.194e-2
-0.290, 2.197e-2
-0.291, 2.199e-2
-0.292, 2.202e-2
-0.293, 2.204e-2
-0.294, 2.207e-2
-0.295, 2.209e-2
-0.296, 2.213e-2
-0.297, 2.215e-2
-0.298, 2.218e-2
-0.299, 2.220e-2
-0.300, 2.224e-2
-0.301, 2.226e-2
-0.302, 2.229e-2
-0.303, 2.231e-2
-0.304, 2.234e-2
-0.305, 2.237e-2
-0.306, 2.240e-2
-0.307, 2.242e-2
-0.308, 2.245e-2
-0.309, 2.247e-2
-0.310, 2.251e-2
-0.311, 2.253e-2
-0.312, 2.256e-2
-0.313, 2.258e-2
-0.314, 2.262e-2
-0.315, 2.264e-2
-0.316, 2.267e-2
-0.317, 2.269e-2
-0.318, 2.272e-2
-0.319, 2.274e-2
-0.320, 2.277e-2
-0.321, 2.279e-2
-0.322, 2.282e-2
-0.323, 2.285e-2
-0.324, 2.288e-2
-0.325, 2.290e-2
-0.326, 2.293e-2
-0.327, 2.295e-2
-0.328, 2.298e-2
-0.329, 2.301e-2
-0.330, 2.304e-2
-0.331, 2.306e-2
-0.332, 2.309e-2
-0.333, 2.311e-2
-0.334, 2.314e-2
-0.335, 2.316e-2
-0.336, 2.320e-2
-0.337, 2.322e-2
-0.338, 2.325e-2
-0.339, 2.327e-2
-0.340, 2.330e-2
-0.341, 2.333e-2
-0.342, 2.336e-2
-0.343, 2.338e-2
-0.344, 2.341e-2
-0.345, 2.343e-2
-0.346, 2.346e-2
-0.347, 2.348e-2
-0.348, 2.352e-2
-0.349, 2.354e-2
-0.350, 2.357e-2
-0.351, 2.359e-2
-0.352, 2.362e-2
-0.353, 2.364e-2
-0.354, 2.367e-2
-0.355, 2.369e-2
-0.356, 2.373e-2
-0.357, 2.375e-2
-0.358, 2.378e-2
-0.359, 2.380e-2
-0.360, 2.383e-2
-0.361, 2.385e-2
-0.362, 2.388e-2
-0.363, 2.390e-2
-0.364, 2.394e-2
-0.365, 2.396e-2
-0.366, 2.399e-2
-0.367, 2.401e-2
-0.368, 2.404e-2
-0.369, 2.407e-2
-0.370, 2.410e-2
-0.371, 2.412e-2
-0.372, 2.415e-2
-0.373, 2.417e-2
-0.374, 2.420e-2
-0.375, 2.422e-2
-0.376, 2.425e-2
-0.377, 2.428e-2
-0.378, 2.431e-2
-0.379, 2.433e-2
-0.380, 2.436e-2
-0.381, 2.438e-2
-0.382, 2.441e-2
-0.383, 2.443e-2
-0.384, 2.446e-2
-0.385, 2.448e-2
-0.386, 2.451e-2
-0.387, 2.454e-2
-0.388, 2.457e-2
-0.389, 2.459e-2
-0.390, 2.462e-2
-0.391, 2.464e-2
-0.392, 2.467e-2
-0.393, 2.469e-2
-0.394, 2.472e-2
-0.395, 2.475e-2
-0.396, 2.478e-2
-0.397, 2.480e-2
-0.398, 2.483e-2
-0.399, 2.485e-2
-0.400, 2.488e-2
-0.401, 2.490e-2
-0.402, 2.493e-2
-0.403, 2.495e-2
-0.404, 2.498e-2
-0.405, 2.501e-2
-0.406, 2.504e-2
-0.407, 2.506e-2
-0.408, 2.509e-2
-0.409, 2.511e-2
-0.410, 2.514e-2
-0.411, 2.517e-2
-0.412, 2.520e-2
-0.413, 2.522e-2
-0.414, 2.525e-2
-0.415, 2.527e-2
-0.416, 2.530e-2
-0.417, 2.532e-2
-0.418, 2.535e-2
-0.419, 2.538e-2
-0.420, 2.541e-2
-0.421, 2.543e-2
-0.422, 2.546e-2
-0.423, 2.548e-2
-0.424, 2.551e-2
-0.425, 2.553e-2
-0.426, 2.556e-2
-0.427, 2.558e-2
-0.428, 2.561e-2
-0.429, 2.563e-2
-0.430, 2.567e-2
-0.431, 2.569e-2
-0.432, 2.572e-2
-0.433, 2.574e-2
-0.434, 2.577e-2
-0.435, 2.579e-2
-0.436, 2.582e-2
-0.437, 2.584e-2
-0.438, 2.587e-2
-0.439, 2.589e-2
-0.440, 2.592e-2
-0.441, 2.594e-2
-0.442, 2.597e-2
-0.443, 2.599e-2
-0.444, 2.602e-2
-0.445, 2.604e-2
-0.446, 2.608e-2
-0.447, 2.610e-2
-0.448, 2.613e-2
-0.449, 2.615e-2
-0.450, 2.618e-2
-0.451, 2.620e-2
-0.452, 2.623e-2
-0.453, 2.625e-2
-0.454, 2.628e-2
-0.455, 2.630e-2
-0.456, 2.633e-2
-0.457, 2.635e-2
-0.458, 2.638e-2
-0.459, 2.641e-2
-0.460, 2.644e-2
-0.461, 2.646e-2
-0.462, 2.650e-2
-0.463, 2.652e-2
-0.464, 2.655e-2
-0.465, 2.658e-2
-0.466, 2.660e-2
-0.467, 2.663e-2
-0.468, 2.666e-2
-0.469, 2.668e-2
-0.470, 2.671e-2
-0.471, 2.673e-2
-0.472, 2.676e-2
-0.473, 2.679e-2
-0.474, 2.682e-2
-0.475, 2.684e-2
-0.476, 2.687e-2
-0.477, 2.689e-2
-0.478, 2.692e-2
-0.479, 2.694e-2
-0.480, 2.697e-2
-0.481, 2.700e-2
-0.482, 2.702e-2
-0.483, 2.705e-2
-0.484, 2.708e-2
-0.485, 2.710e-2
-0.486, 2.713e-2
-0.487, 2.715e-2
-0.488, 2.719e-2
-0.489, 2.721e-2
-0.490, 2.724e-2
-0.491, 2.726e-2
-0.492, 2.729e-2
-0.493, 2.731e-2
-0.494, 2.734e-2
-0.495, 2.736e-2
-0.496, 2.739e-2
-0.497, 2.742e-2
-0.498, 2.744e-2
-0.499, 2.747e-2
-0.500, 2.750e-2
-0.501, 2.752e-2
-0.502, 2.755e-2
-0.503, 2.758e-2
-0.504, 2.761e-2
-0.505, 2.763e-2
-0.506, 2.767e-2
-0.507, 2.768e-2
-0.508, 2.772e-2
-0.509, 2.773e-2
-0.510, 2.776e-2
-0.511, 2.779e-2
-0.512, 2.782e-2
-0.513, 2.784e-2
-0.514, 2.787e-2
-0.515, 2.789e-2
-0.516, 2.792e-2
-0.517, 2.794e-2
-0.518, 2.797e-2
-0.519, 2.799e-2
-0.520, 2.802e-2
-0.521, 2.805e-2
-0.522, 2.807e-2
-0.523, 2.810e-2
-0.524, 2.813e-2
-0.525, 2.815e-2
-0.526, 2.818e-2
-0.527, 2.820e-2
-0.528, 2.823e-2
-0.529, 2.826e-2
-0.530, 2.829e-2
-0.531, 2.831e-2
-0.532, 2.834e-2
-0.533, 2.836e-2
-0.534, 2.839e-2
-0.535, 2.841e-2
-0.536, 2.844e-2
-0.537, 2.846e-2
-0.538, 2.849e-2
-0.539, 2.851e-2
-0.540, 2.854e-2
-0.541, 2.856e-2
-0.542, 2.859e-2
-0.543, 2.862e-2
-0.544, 2.864e-2
-0.545, 2.867e-2
-0.546, 2.869e-2
-0.547, 2.872e-2
-0.548, 2.875e-2
-0.549, 2.877e-2
-0.550, 2.880e-2
-0.551, 2.882e-2
-0.552, 2.885e-2
-0.553, 2.887e-2
-0.554, 2.890e-2
-0.555, 2.892e-2
-0.556, 2.895e-2
-0.557, 2.897e-2
-0.558, 2.900e-2
-0.559, 2.903e-2
-0.560, 2.905e-2
-0.561, 2.908e-2
-0.562, 2.911e-2
-0.563, 2.914e-2
-0.564, 2.919e-2
-0.565, 2.923e-2
-0.566, 2.927e-2
-0.567, 2.929e-2
-0.568, 2.931e-2
-0.569, 2.934e-2
-0.570, 2.936e-2
-0.571, 2.939e-2
-0.572, 2.941e-2
-0.573, 2.943e-2
-0.574, 2.946e-2
-0.575, 2.949e-2
-0.576, 2.951e-2
-0.577, 2.953e-2
-0.578, 2.956e-2
-0.579, 2.958e-2
-0.580, 2.962e-2
-0.581, 2.964e-2
-0.582, 2.966e-2
-0.583, 2.969e-2
-0.584, 2.971e-2
-0.585, 2.973e-2
-0.586, 2.976e-2
-0.587, 2.978e-2
-0.588, 2.981e-2
-0.589, 2.983e-2
-0.590, 2.986e-2
-0.591, 2.988e-2
-0.592, 2.991e-2
-0.593, 2.992e-2
-0.594, 2.995e-2
-0.595, 2.998e-2
-0.596, 3.000e-2
-0.597, 3.002e-2
-0.598, 3.006e-2
-0.599, 3.008e-2
-0.600, 3.010e-2
-0.601, 3.012e-2
-0.602, 3.015e-2
-0.603, 3.018e-2
-0.604, 3.020e-2
-0.605, 3.022e-2
-0.606, 3.025e-2
-0.607, 3.027e-2
-0.608, 3.030e-2
-0.609, 3.032e-2
-0.610, 3.035e-2
-0.611, 3.037e-2
-0.612, 3.041e-2
-0.613, 3.043e-2
-0.614, 3.047e-2
-0.615, 3.051e-2
-0.616, 3.056e-2
-0.617, 3.058e-2
-0.618, 3.062e-2
-0.619, 3.064e-2
-0.620, 3.066e-2
-0.621, 3.069e-2
-0.622, 3.072e-2
-0.623, 3.074e-2
-0.624, 3.077e-2
-0.625, 3.078e-2
-0.626, 3.081e-2
-0.627, 3.084e-2
-0.628, 3.086e-2
-0.629, 3.089e-2
-0.630, 3.091e-2
-0.631, 3.093e-2
-0.632, 3.095e-2
-0.633, 3.098e-2
-0.634, 3.101e-2
-0.635, 3.103e-2
-0.636, 3.107e-2
-0.637, 3.108e-2
-0.638, 3.111e-2
-0.639, 3.113e-2
-0.640, 3.116e-2
-0.641, 3.118e-2
-0.642, 3.120e-2
-0.643, 3.123e-2
-0.644, 3.118e-2
-0.645, 3.119e-2
-0.646, 3.122e-2
-0.647, 3.124e-2
-0.648, 3.128e-2
-0.649, 3.131e-2
-0.650, 3.135e-2
-0.651, 3.139e-2
-0.652, 3.142e-2
-0.653, 3.144e-2
-0.654, 3.147e-2
-0.655, 3.148e-2
-0.656, 3.152e-2
-0.657, 3.154e-2
-0.658, 3.157e-2
-0.659, 3.159e-2
-0.660, 3.162e-2
-0.661, 3.164e-2
-0.662, 3.169e-2
-0.663, 3.171e-2
-0.664, 3.174e-2
-0.665, 3.177e-2
-0.666, 3.182e-2
-0.667, 3.185e-2
-0.668, 3.190e-2
-0.669, 3.194e-2
-0.670, 3.198e-2
-0.671, 3.200e-2
-0.672, 3.202e-2
-0.673, 3.205e-2
-0.674, 3.207e-2
-0.675, 3.210e-2
-0.676, 3.213e-2
-0.677, 3.215e-2
-0.678, 3.219e-2
-0.679, 3.221e-2
-0.680, 3.226e-2
-0.681, 3.232e-2
-0.682, 3.235e-2
-0.683, 3.237e-2
-0.684, 3.240e-2
-0.685, 3.244e-2
-0.686, 3.249e-2
-0.687, 3.252e-2
-0.688, 3.255e-2
-0.689, 3.257e-2
-0.690, 3.260e-2
-0.691, 3.262e-2
-0.692, 3.265e-2
-0.693, 3.267e-2
-0.694, 3.270e-2
-0.695, 3.273e-2
-0.696, 3.275e-2
-0.697, 3.277e-2
-0.698, 3.280e-2
-0.699, 3.281e-2
-0.700, 3.284e-2
-0.701, 3.287e-2
-0.702, 3.291e-2
-0.703, 3.295e-2
-0.704, 3.298e-2
-0.705, 3.300e-2
-0.706, 3.301e-2
-0.707, 3.301e-2
-0.708, 3.304e-2
-0.709, 3.306e-2
-0.710, 3.310e-2
-0.711, 3.313e-2
-0.712, 3.316e-2
-0.713, 3.319e-2
-0.714, 3.323e-2
-0.715, 3.325e-2
-0.716, 3.328e-2
-0.717, 3.331e-2
-0.718, 3.335e-2
-0.719, 3.341e-2
-0.720, 3.349e-2
-0.721, 3.352e-2
-0.722, 3.354e-2
-0.723, 3.356e-2
-0.724, 3.359e-2
-0.725, 3.361e-2
-0.726, 3.365e-2
-0.727, 3.368e-2
-0.728, 3.371e-2
-0.729, 3.373e-2
-0.730, 3.375e-2
-0.731, 3.377e-2
-0.732, 3.379e-2
-0.733, 3.381e-2
-0.734, 3.384e-2
-0.735, 3.386e-2
-0.736, 3.389e-2
-0.737, 3.392e-2
-0.738, 3.395e-2
-0.739, 3.397e-2
-0.740, 3.400e-2
-0.741, 3.403e-2
-0.742, 3.405e-2
-0.743, 3.408e-2
-0.744, 3.415e-2
-0.745, 3.419e-2
-0.746, 3.423e-2
-0.747, 3.429e-2
-0.748, 3.434e-2
-0.749, 3.436e-2
-0.750, 3.439e-2
-0.751, 3.441e-2
-0.752, 3.445e-2
-0.753, 3.448e-2
-0.754, 3.450e-2
-0.755, 3.453e-2
-0.756, 3.456e-2
-0.757, 3.458e-2
-0.758, 3.461e-2
-0.759, 3.464e-2
-0.760, 3.469e-2
-0.761, 3.473e-2
-0.762, 3.478e-2
-0.763, 3.482e-2
-0.764, 3.484e-2
-0.765, 3.486e-2
-0.766, 3.489e-2
-0.767, 3.489e-2
-0.768, 3.493e-2
-0.769, 3.499e-2
-0.770, 3.501e-2
-0.771, 3.503e-2
-0.772, 3.507e-2
-0.773, 3.511e-2
-0.774, 3.515e-2
-0.775, 3.522e-2
-0.776, 3.525e-2
-0.777, 3.525e-2
-0.778, 3.526e-2
-0.779, 3.528e-2
-0.780, 3.531e-2
-0.781, 3.533e-2
-0.782, 3.535e-2
-0.783, 3.539e-2
-0.784, 3.542e-2
-0.785, 3.545e-2
-0.786, 3.550e-2
-0.787, 3.555e-2
-0.788, 3.564e-2
-0.789, 3.575e-2
-0.790, 3.580e-2
-0.791, 3.584e-2
-0.792, 3.591e-2
-0.793, 3.595e-2
-0.794, 3.598e-2
-0.795, 3.600e-2
-0.796, 3.604e-2
-0.797, 3.606e-2
-0.798, 3.608e-2
-0.799, 3.612e-2
