Apr. 28, 2026   12:19:18
Cyclic Voltammetry
File: c:\users\administrator\desktop\2026.4.28\hi 2mol h2so4\0.05\run unsaved.txt
Data Source:  Experiment
Instrument Model:  CHI600E
Header: 
Note: 

Init E (V) = 0
High E (V) = 0.8
Low E (V) = -0.8
Init P/N = N
Scan Rate (V/s) = 0.05
Segment = 3
Sample Interval (V) = 0.001
Quiet Time (sec) = 2
Sensitivity (A/V) = 0.1

Segment 1:

Segment 2:

Segment 3:

Potential/V, Current/A

0.000, -1.166e-2
-0.001, -1.148e-2
-0.002, -1.131e-2
-0.003, -1.115e-2
-0.004, -1.100e-2
-0.005, -1.086e-2
-0.006, -1.073e-2
-0.007, -1.060e-2
-0.008, -1.047e-2
-0.009, -1.035e-2
-0.010, -1.023e-2
-0.011, -1.011e-2
-0.012, -9.997e-3
-0.013, -9.884e-3
-0.014, -9.772e-3
-0.015, -9.663e-3
-0.016, -9.554e-3
-0.017, -9.448e-3
-0.018, -9.345e-3
-0.019, -9.241e-3
-0.020, -9.139e-3
-0.021, -9.038e-3
-0.022, -8.938e-3
-0.023, -8.838e-3
-0.024, -8.742e-3
-0.025, -8.645e-3
-0.026, -8.550e-3
-0.027, -8.453e-3
-0.028, -8.357e-3
-0.029, -8.266e-3
-0.030, -8.173e-3
-0.031, -8.082e-3
-0.032, -7.991e-3
-0.033, -7.899e-3
-0.034, -7.813e-3
-0.035, -7.723e-3
-0.036, -7.635e-3
-0.037, -7.549e-3
-0.038, -7.463e-3
-0.039, -7.376e-3
-0.040, -7.291e-3
-0.041, -7.205e-3
-0.042, -7.121e-3
-0.043, -7.039e-3
-0.044, -6.957e-3
-0.045, -6.873e-3
-0.046, -6.792e-3
-0.047, -6.711e-3
-0.048, -6.631e-3
-0.049, -6.554e-3
-0.050, -6.474e-3
-0.051, -6.393e-3
-0.052, -6.314e-3
-0.053, -6.238e-3
-0.054, -6.160e-3
-0.055, -6.085e-3
-0.056, -6.008e-3
-0.057, -5.932e-3
-0.058, -5.857e-3
-0.059, -5.782e-3
-0.060, -5.709e-3
-0.061, -5.636e-3
-0.062, -5.564e-3
-0.063, -5.493e-3
-0.064, -5.421e-3
-0.065, -5.351e-3
-0.066, -5.281e-3
-0.067, -5.209e-3
-0.068, -5.139e-3
-0.069, -5.070e-3
-0.070, -4.999e-3
-0.071, -4.927e-3
-0.072, -4.860e-3
-0.073, -4.791e-3
-0.074, -4.722e-3
-0.075, -4.654e-3
-0.076, -4.588e-3
-0.077, -4.520e-3
-0.078, -4.453e-3
-0.079, -4.388e-3
-0.080, -4.322e-3
-0.081, -4.256e-3
-0.082, -4.190e-3
-0.083, -4.125e-3
-0.084, -4.059e-3
-0.085, -3.994e-3
-0.086, -3.931e-3
-0.087, -3.867e-3
-0.088, -3.804e-3
-0.089, -3.741e-3
-0.090, -3.679e-3
-0.091, -3.620e-3
-0.092, -3.560e-3
-0.093, -3.498e-3
-0.094, -3.434e-3
-0.095, -3.375e-3
-0.096, -3.313e-3
-0.097, -3.251e-3
-0.098, -3.192e-3
-0.099, -3.133e-3
-0.100, -3.073e-3
-0.101, -3.012e-3
-0.102, -2.953e-3
-0.103, -2.895e-3
-0.104, -2.837e-3
-0.105, -2.778e-3
-0.106, -2.720e-3
-0.107, -2.662e-3
-0.108, -2.604e-3
-0.109, -2.546e-3
-0.110, -2.488e-3
-0.111, -2.432e-3
-0.112, -2.375e-3
-0.113, -2.319e-3
-0.114, -2.263e-3
-0.115, -2.205e-3
-0.116, -2.150e-3
-0.117, -2.095e-3
-0.118, -2.039e-3
-0.119, -1.986e-3
-0.120, -1.931e-3
-0.121, -1.876e-3
-0.122, -1.821e-3
-0.123, -1.767e-3
-0.124, -1.713e-3
-0.125, -1.661e-3
-0.126, -1.608e-3
-0.127, -1.556e-3
-0.128, -1.505e-3
-0.129, -1.453e-3
-0.130, -1.402e-3
-0.131, -1.348e-3
-0.132, -1.296e-3
-0.133, -1.245e-3
-0.134, -1.193e-3
-0.135, -1.140e-3
-0.136, -1.089e-3
-0.137, -1.038e-3
-0.138, -9.884e-4
-0.139, -9.376e-4
-0.140, -8.881e-4
-0.141, -8.378e-4
-0.142, -7.867e-4
-0.143, -7.374e-4
-0.144, -6.885e-4
-0.145, -6.390e-4
-0.146, -5.892e-4
-0.147, -5.398e-4
-0.148, -4.889e-4
-0.149, -4.402e-4
-0.150, -3.910e-4
-0.151, -3.424e-4
-0.152, -2.963e-4
-0.153, -2.477e-4
-0.154, -1.992e-4
-0.155, -1.520e-4
-0.156, -1.044e-4
-0.157, -5.734e-5
-0.158, -8.149e-6
-0.159, 3.888e-5
-0.160, 8.650e-5
-0.161, 1.319e-4
-0.162, 1.769e-4
-0.163, 2.237e-4
-0.164, 2.693e-4
-0.165, 3.144e-4
-0.166, 3.613e-4
-0.167, 4.095e-4
-0.168, 4.566e-4
-0.169, 5.021e-4
-0.170, 5.462e-4
-0.171, 5.922e-4
-0.172, 6.368e-4
-0.173, 6.830e-4
-0.174, 7.271e-4
-0.175, 7.723e-4
-0.176, 8.175e-4
-0.177, 8.630e-4
-0.178, 9.064e-4
-0.179, 9.510e-4
-0.180, 9.936e-4
-0.181, 1.038e-3
-0.182, 1.082e-3
-0.183, 1.125e-3
-0.184, 1.170e-3
-0.185, 1.212e-3
-0.186, 1.257e-3
-0.187, 1.298e-3
-0.188, 1.340e-3
-0.189, 1.382e-3
-0.190, 1.421e-3
-0.191, 1.463e-3
-0.192, 1.507e-3
-0.193, 1.551e-3
-0.194, 1.591e-3
-0.195, 1.630e-3
-0.196, 1.672e-3
-0.197, 1.713e-3
-0.198, 1.757e-3
-0.199, 1.799e-3
-0.200, 1.839e-3
-0.201, 1.880e-3
-0.202, 1.921e-3
-0.203, 1.964e-3
-0.204, 2.005e-3
-0.205, 2.047e-3
-0.206, 2.086e-3
-0.207, 2.126e-3
-0.208, 2.166e-3
-0.209, 2.206e-3
-0.210, 2.244e-3
-0.211, 2.283e-3
-0.212, 2.321e-3
-0.213, 2.358e-3
-0.214, 2.395e-3
-0.215, 2.434e-3
-0.216, 2.472e-3
-0.217, 2.511e-3
-0.218, 2.550e-3
-0.219, 2.588e-3
-0.220, 2.626e-3
-0.221, 2.664e-3
-0.222, 2.703e-3
-0.223, 2.740e-3
-0.224, 2.779e-3
-0.225, 2.818e-3
-0.226, 2.854e-3
-0.227, 2.892e-3
-0.228, 2.929e-3
-0.229, 2.968e-3
-0.230, 3.007e-3
-0.231, 3.045e-3
-0.232, 3.081e-3
-0.233, 3.118e-3
-0.234, 3.154e-3
-0.235, 3.192e-3
-0.236, 3.229e-3
-0.237, 3.265e-3
-0.238, 3.302e-3
-0.239, 3.337e-3
-0.240, 3.375e-3
-0.241, 3.412e-3
-0.242, 3.449e-3
-0.243, 3.486e-3
-0.244, 3.521e-3
-0.245, 3.556e-3
-0.246, 3.591e-3
-0.247, 3.627e-3
-0.248, 3.663e-3
-0.249, 3.698e-3
-0.250, 3.733e-3
-0.251, 3.769e-3
-0.252, 3.803e-3
-0.253, 3.839e-3
-0.254, 3.874e-3
-0.255, 3.910e-3
-0.256, 3.946e-3
-0.257, 3.982e-3
-0.258, 4.014e-3
-0.259, 4.049e-3
-0.260, 4.083e-3
-0.261, 4.118e-3
-0.262, 4.153e-3
-0.263, 4.189e-3
-0.264, 4.223e-3
-0.265, 4.259e-3
-0.266, 4.292e-3
-0.267, 4.326e-3
-0.268, 4.358e-3
-0.269, 4.392e-3
-0.270, 4.426e-3
-0.271, 4.459e-3
-0.272, 4.492e-3
-0.273, 4.526e-3
-0.274, 4.560e-3
-0.275, 4.593e-3
-0.276, 4.628e-3
-0.277, 4.662e-3
-0.278, 4.695e-3
-0.279, 4.727e-3
-0.280, 4.760e-3
-0.281, 4.792e-3
-0.282, 4.823e-3
-0.283, 4.856e-3
-0.284, 4.889e-3
-0.285, 4.923e-3
-0.286, 4.956e-3
-0.287, 4.987e-3
-0.288, 5.020e-3
-0.289, 5.051e-3
-0.290, 5.084e-3
-0.291, 5.115e-3
-0.292, 5.147e-3
-0.293, 5.179e-3
-0.294, 5.211e-3
-0.295, 5.241e-3
-0.296, 5.272e-3
-0.297, 5.304e-3
-0.298, 5.335e-3
-0.299, 5.367e-3
-0.300, 5.400e-3
-0.301, 5.432e-3
-0.302, 5.464e-3
-0.303, 5.493e-3
-0.304, 5.524e-3
-0.305, 5.555e-3
-0.306, 5.586e-3
-0.307, 5.619e-3
-0.308, 5.651e-3
-0.309, 5.680e-3
-0.310, 5.709e-3
-0.311, 5.738e-3
-0.312, 5.768e-3
-0.313, 5.799e-3
-0.314, 5.831e-3
-0.315, 5.861e-3
-0.316, 5.891e-3
-0.317, 5.921e-3
-0.318, 5.950e-3
-0.319, 5.980e-3
-0.320, 6.010e-3
-0.321, 6.040e-3
-0.322, 6.069e-3
-0.323, 6.100e-3
-0.324, 6.131e-3
-0.325, 6.160e-3
-0.326, 6.189e-3
-0.327, 6.220e-3
-0.328, 6.249e-3
-0.329, 6.278e-3
-0.330, 6.304e-3
-0.331, 6.333e-3
-0.332, 6.362e-3
-0.333, 6.393e-3
-0.334, 6.422e-3
-0.335, 6.451e-3
-0.336, 6.479e-3
-0.337, 6.508e-3
-0.338, 6.537e-3
-0.339, 6.566e-3
-0.340, 6.596e-3
-0.341, 6.626e-3
-0.342, 6.654e-3
-0.343, 6.681e-3
-0.344, 6.710e-3
-0.345, 6.738e-3
-0.346, 6.766e-3
-0.347, 6.796e-3
-0.348, 6.824e-3
-0.349, 6.853e-3
-0.350, 6.882e-3
-0.351, 6.909e-3
-0.352, 6.936e-3
-0.353, 6.965e-3
-0.354, 6.991e-3
-0.355, 7.020e-3
-0.356, 7.048e-3
-0.357, 7.076e-3
-0.358, 7.103e-3
-0.359, 7.133e-3
-0.360, 7.160e-3
-0.361, 7.187e-3
-0.362, 7.214e-3
-0.363, 7.242e-3
-0.364, 7.270e-3
-0.365, 7.300e-3
-0.366, 7.328e-3
-0.367, 7.356e-3
-0.368, 7.383e-3
-0.369, 7.410e-3
-0.370, 7.436e-3
-0.371, 7.464e-3
-0.372, 7.492e-3
-0.373, 7.518e-3
-0.374, 7.546e-3
-0.375, 7.573e-3
-0.376, 7.600e-3
-0.377, 7.628e-3
-0.378, 7.655e-3
-0.379, 7.683e-3
-0.380, 7.709e-3
-0.381, 7.736e-3
-0.382, 7.763e-3
-0.383, 7.790e-3
-0.384, 7.817e-3
-0.385, 7.845e-3
-0.386, 7.870e-3
-0.387, 7.897e-3
-0.388, 7.922e-3
-0.389, 7.949e-3
-0.390, 7.977e-3
-0.391, 8.003e-3
-0.392, 8.030e-3
-0.393, 8.057e-3
-0.394, 8.087e-3
-0.395, 8.114e-3
-0.396, 8.140e-3
-0.397, 8.167e-3
-0.398, 8.194e-3
-0.399, 8.219e-3
-0.400, 8.246e-3
-0.401, 8.272e-3
-0.402, 8.299e-3
-0.403, 8.326e-3
-0.404, 8.353e-3
-0.405, 8.378e-3
-0.406, 8.405e-3
-0.407, 8.430e-3
-0.408, 8.456e-3
-0.409, 8.484e-3
-0.410, 8.515e-3
-0.411, 8.542e-3
-0.412, 8.568e-3
-0.413, 8.594e-3
-0.414, 8.621e-3
-0.415, 8.644e-3
-0.416, 8.671e-3
-0.417, 8.696e-3
-0.418, 8.721e-3
-0.419, 8.746e-3
-0.420, 8.771e-3
-0.421, 8.797e-3
-0.422, 8.825e-3
-0.423, 8.851e-3
-0.424, 8.877e-3
-0.425, 8.902e-3
-0.426, 8.926e-3
-0.427, 8.951e-3
-0.428, 8.976e-3
-0.429, 9.002e-3
-0.430, 9.030e-3
-0.431, 9.054e-3
-0.432, 9.080e-3
-0.433, 9.104e-3
-0.434, 9.128e-3
-0.435, 9.154e-3
-0.436, 9.178e-3
-0.437, 9.203e-3
-0.438, 9.229e-3
-0.439, 9.255e-3
-0.440, 9.283e-3
-0.441, 9.308e-3
-0.442, 9.333e-3
-0.443, 9.357e-3
-0.444, 9.380e-3
-0.445, 9.404e-3
-0.446, 9.431e-3
-0.447, 9.458e-3
-0.448, 9.487e-3
-0.449, 9.513e-3
-0.450, 9.538e-3
-0.451, 9.563e-3
-0.452, 9.587e-3
-0.453, 9.611e-3
-0.454, 9.637e-3
-0.455, 9.661e-3
-0.456, 9.685e-3
-0.457, 9.710e-3
-0.458, 9.732e-3
-0.459, 9.758e-3
-0.460, 9.787e-3
-0.461, 9.812e-3
-0.462, 9.838e-3
-0.463, 9.861e-3
-0.464, 9.885e-3
-0.465, 9.911e-3
-0.466, 9.935e-3
-0.467, 9.960e-3
-0.468, 9.985e-3
-0.469, 1.001e-2
-0.470, 1.003e-2
-0.471, 1.006e-2
-0.472, 1.008e-2
-0.473, 1.011e-2
-0.474, 1.013e-2
-0.475, 1.015e-2
-0.476, 1.018e-2
-0.477, 1.020e-2
-0.478, 1.023e-2
-0.479, 1.025e-2
-0.480, 1.027e-2
-0.481, 1.029e-2
-0.482, 1.032e-2
-0.483, 1.035e-2
-0.484, 1.037e-2
-0.485, 1.039e-2
-0.486, 1.041e-2
-0.487, 1.044e-2
-0.488, 1.047e-2
-0.489, 1.050e-2
-0.490, 1.052e-2
-0.491, 1.054e-2
-0.492, 1.057e-2
-0.493, 1.059e-2
-0.494, 1.061e-2
-0.495, 1.064e-2
-0.496, 1.066e-2
-0.497, 1.069e-2
-0.498, 1.071e-2
-0.499, 1.073e-2
-0.500, 1.076e-2
-0.501, 1.079e-2
-0.502, 1.081e-2
-0.503, 1.083e-2
-0.504, 1.086e-2
-0.505, 1.088e-2
-0.506, 1.091e-2
-0.507, 1.094e-2
-0.508, 1.096e-2
-0.509, 1.099e-2
-0.510, 1.101e-2
-0.511, 1.103e-2
-0.512, 1.106e-2
-0.513, 1.108e-2
-0.514, 1.110e-2
-0.515, 1.113e-2
-0.516, 1.115e-2
-0.517, 1.117e-2
-0.518, 1.120e-2
-0.519, 1.122e-2
-0.520, 1.124e-2
-0.521, 1.126e-2
-0.522, 1.129e-2
-0.523, 1.132e-2
-0.524, 1.134e-2
-0.525, 1.136e-2
-0.526, 1.139e-2
-0.527, 1.142e-2
-0.528, 1.144e-2
-0.529, 1.146e-2
-0.530, 1.149e-2
-0.531, 1.151e-2
-0.532, 1.154e-2
-0.533, 1.156e-2
-0.534, 1.158e-2
-0.535, 1.160e-2
-0.536, 1.163e-2
-0.537, 1.166e-2
-0.538, 1.168e-2
-0.539, 1.171e-2
-0.540, 1.173e-2
-0.541, 1.176e-2
-0.542, 1.178e-2
-0.543, 1.181e-2
-0.544, 1.184e-2
-0.545, 1.186e-2
-0.546, 1.189e-2
-0.547, 1.191e-2
-0.548, 1.193e-2
-0.549, 1.195e-2
-0.550, 1.197e-2
-0.551, 1.199e-2
-0.552, 1.202e-2
-0.553, 1.204e-2
-0.554, 1.206e-2
-0.555, 1.208e-2
-0.556, 1.210e-2
-0.557, 1.212e-2
-0.558, 1.214e-2
-0.559, 1.216e-2
-0.560, 1.218e-2
-0.561, 1.221e-2
-0.562, 1.223e-2
-0.563, 1.226e-2
-0.564, 1.228e-2
-0.565, 1.231e-2
-0.566, 1.234e-2
-0.567, 1.237e-2
-0.568, 1.239e-2
-0.569, 1.242e-2
-0.570, 1.245e-2
-0.571, 1.247e-2
-0.572, 1.249e-2
-0.573, 1.252e-2
-0.574, 1.254e-2
-0.575, 1.257e-2
-0.576, 1.260e-2
-0.577, 1.262e-2
-0.578, 1.264e-2
-0.579, 1.266e-2
-0.580, 1.268e-2
-0.581, 1.270e-2
-0.582, 1.272e-2
-0.583, 1.275e-2
-0.584, 1.276e-2
-0.585, 1.279e-2
-0.586, 1.281e-2
-0.587, 1.283e-2
-0.588, 1.285e-2
-0.589, 1.288e-2
-0.590, 1.290e-2
-0.591, 1.292e-2
-0.592, 1.294e-2
-0.593, 1.297e-2
-0.594, 1.299e-2
-0.595, 1.301e-2
-0.596, 1.304e-2
-0.597, 1.307e-2
-0.598, 1.309e-2
-0.599, 1.312e-2
-0.600, 1.314e-2
-0.601, 1.318e-2
-0.602, 1.319e-2
-0.603, 1.322e-2
-0.604, 1.324e-2
-0.605, 1.326e-2
-0.606, 1.328e-2
-0.607, 1.330e-2
-0.608, 1.332e-2
-0.609, 1.334e-2
-0.610, 1.336e-2
-0.611, 1.338e-2
-0.612, 1.341e-2
-0.613, 1.344e-2
-0.614, 1.346e-2
-0.615, 1.348e-2
-0.616, 1.350e-2
-0.617, 1.353e-2
-0.618, 1.356e-2
-0.619, 1.358e-2
-0.620, 1.361e-2
-0.621, 1.363e-2
-0.622, 1.366e-2
-0.623, 1.368e-2
-0.624, 1.370e-2
-0.625, 1.373e-2
-0.626, 1.376e-2
-0.627, 1.378e-2
-0.628, 1.379e-2
-0.629, 1.380e-2
-0.630, 1.382e-2
-0.631, 1.385e-2
-0.632, 1.387e-2
-0.633, 1.389e-2
-0.634, 1.391e-2
-0.635, 1.393e-2
-0.636, 1.395e-2
-0.637, 1.397e-2
-0.638, 1.399e-2
-0.639, 1.400e-2
-0.640, 1.403e-2
-0.641, 1.406e-2
-0.642, 1.408e-2
-0.643, 1.410e-2
-0.644, 1.414e-2
-0.645, 1.418e-2
-0.646, 1.421e-2
-0.647, 1.424e-2
-0.648, 1.427e-2
-0.649, 1.430e-2
-0.650, 1.435e-2
-0.651, 1.443e-2
-0.652, 1.445e-2
-0.653, 1.448e-2
-0.654, 1.449e-2
-0.655, 1.451e-2
-0.656, 1.453e-2
-0.657, 1.454e-2
-0.658, 1.456e-2
-0.659, 1.458e-2
-0.660, 1.460e-2
-0.661, 1.462e-2
-0.662, 1.464e-2
-0.663, 1.467e-2
-0.664, 1.469e-2
-0.665, 1.471e-2
-0.666, 1.474e-2
-0.667, 1.476e-2
-0.668, 1.478e-2
-0.669, 1.480e-2
-0.670, 1.482e-2
-0.671, 1.484e-2
-0.672, 1.487e-2
-0.673, 1.490e-2
-0.674, 1.496e-2
-0.675, 1.499e-2
-0.676, 1.502e-2
-0.677, 1.502e-2
-0.678, 1.503e-2
-0.679, 1.504e-2
-0.680, 1.506e-2
-0.681, 1.508e-2
-0.682, 1.509e-2
-0.683, 1.511e-2
-0.684, 1.513e-2
-0.685, 1.515e-2
-0.686, 1.517e-2
-0.687, 1.520e-2
-0.688, 1.522e-2
-0.689, 1.526e-2
-0.690, 1.529e-2
-0.691, 1.532e-2
-0.692, 1.537e-2
-0.693, 1.540e-2
-0.694, 1.541e-2
-0.695, 1.542e-2
-0.696, 1.544e-2
-0.697, 1.550e-2
-0.698, 1.557e-2
-0.699, 1.561e-2
-0.700, 1.565e-2
-0.701, 1.567e-2
-0.702, 1.570e-2
-0.703, 1.573e-2
-0.704, 1.577e-2
-0.705, 1.580e-2
-0.706, 1.583e-2
-0.707, 1.586e-2
-0.708, 1.591e-2
-0.709, 1.594e-2
-0.710, 1.595e-2
-0.711, 1.597e-2
-0.712, 1.598e-2
-0.713, 1.599e-2
-0.714, 1.601e-2
-0.715, 1.603e-2
-0.716, 1.605e-2
-0.717, 1.608e-2
-0.718, 1.611e-2
-0.719, 1.613e-2
-0.720, 1.614e-2
-0.721, 1.618e-2
-0.722, 1.621e-2
-0.723, 1.625e-2
-0.724, 1.630e-2
-0.725, 1.632e-2
-0.726, 1.633e-2
-0.727, 1.634e-2
-0.728, 1.636e-2
-0.729, 1.639e-2
-0.730, 1.641e-2
-0.731, 1.644e-2
-0.732, 1.646e-2
-0.733, 1.651e-2
-0.734, 1.654e-2
-0.735, 1.657e-2
-0.736, 1.662e-2
-0.737, 1.666e-2
-0.738, 1.669e-2
-0.739, 1.673e-2
-0.740, 1.676e-2
-0.741, 1.684e-2
-0.742, 1.686e-2
-0.743, 1.687e-2
-0.744, 1.689e-2
-0.745, 1.691e-2
-0.746, 1.693e-2
-0.747, 1.696e-2
-0.748, 1.699e-2
-0.749, 1.702e-2
-0.750, 1.707e-2
-0.751, 1.709e-2
-0.752, 1.713e-2
-0.753, 1.717e-2
-0.754, 1.721e-2
-0.755, 1.725e-2
-0.756, 1.733e-2
-0.757, 1.736e-2
-0.758, 1.738e-2
-0.759, 1.739e-2
-0.760, 1.740e-2
-0.761, 1.743e-2
-0.762, 1.746e-2
-0.763, 1.750e-2
-0.764, 1.756e-2
-0.765, 1.760e-2
-0.766, 1.763e-2
-0.767, 1.768e-2
-0.768, 1.772e-2
-0.769, 1.777e-2
-0.770, 1.782e-2
-0.771, 1.788e-2
-0.772, 1.790e-2
-0.773, 1.792e-2
-0.774, 1.794e-2
-0.775, 1.798e-2
-0.776, 1.801e-2
-0.777, 1.807e-2
-0.778, 1.811e-2
-0.779, 1.815e-2
-0.780, 1.817e-2
-0.781, 1.820e-2
-0.782, 1.826e-2
-0.783, 1.831e-2
-0.784, 1.836e-2
-0.785, 1.844e-2
-0.786, 1.849e-2
-0.787, 1.851e-2
-0.788, 1.855e-2
-0.789, 1.859e-2
-0.790, 1.862e-2
-0.791, 1.866e-2
-0.792, 1.870e-2
-0.793, 1.874e-2
-0.794, 1.879e-2
-0.795, 1.884e-2
-0.796, 1.888e-2
-0.797, 1.896e-2
-0.798, 1.903e-2
-0.799, 1.909e-2
-0.800, 1.908e-2
-0.799, 1.886e-2
-0.798, 1.862e-2
-0.797, 1.837e-2
-0.796, 1.815e-2
-0.795, 1.796e-2
-0.794, 1.777e-2
-0.793, 1.757e-2
-0.792, 1.738e-2
-0.791, 1.720e-2
-0.790, 1.703e-2
-0.789, 1.686e-2
-0.788, 1.670e-2
-0.787, 1.657e-2
-0.786, 1.644e-2
-0.785, 1.630e-2
-0.784, 1.616e-2
-0.783, 1.603e-2
-0.782, 1.589e-2
-0.781, 1.573e-2
-0.780, 1.558e-2
-0.779, 1.543e-2
-0.778, 1.531e-2
-0.777, 1.517e-2
-0.776, 1.502e-2
-0.775, 1.489e-2
-0.774, 1.475e-2
-0.773, 1.465e-2
-0.772, 1.454e-2
-0.771, 1.442e-2
-0.770, 1.429e-2
-0.769, 1.417e-2
-0.768, 1.405e-2
-0.767, 1.395e-2
-0.766, 1.382e-2
-0.765, 1.370e-2
-0.764, 1.361e-2
-0.763, 1.348e-2
-0.762, 1.335e-2
-0.761, 1.322e-2
-0.760, 1.310e-2
-0.759, 1.298e-2
-0.758, 1.286e-2
-0.757, 1.276e-2
-0.756, 1.266e-2
-0.755, 1.255e-2
-0.754, 1.245e-2
-0.753, 1.234e-2
-0.752, 1.224e-2
-0.751, 1.216e-2
-0.750, 1.207e-2
-0.749, 1.195e-2
-0.748, 1.184e-2
-0.747, 1.173e-2
-0.746, 1.161e-2
-0.745, 1.150e-2
-0.744, 1.138e-2
-0.743, 1.128e-2
-0.742, 1.117e-2
-0.741, 1.108e-2
-0.740, 1.100e-2
-0.739, 1.091e-2
-0.738, 1.080e-2
-0.737, 1.070e-2
-0.736, 1.060e-2
-0.735, 1.055e-2
-0.734, 1.051e-2
-0.733, 1.040e-2
-0.732, 1.031e-2
-0.731, 1.023e-2
-0.730, 1.015e-2
-0.729, 1.005e-2
-0.728, 9.938e-3
-0.727, 9.824e-3
-0.726, 9.729e-3
-0.725, 9.626e-3
-0.724, 9.532e-3
-0.723, 9.444e-3
-0.722, 9.350e-3
-0.721, 9.252e-3
-0.720, 9.180e-3
-0.719, 9.101e-3
-0.718, 9.011e-3
-0.717, 8.919e-3
-0.716, 8.835e-3
-0.715, 8.750e-3
-0.714, 8.675e-3
-0.713, 8.601e-3
-0.712, 8.509e-3
-0.711, 8.422e-3
-0.710, 8.356e-3
-0.709, 8.288e-3
-0.708, 8.229e-3
-0.707, 8.150e-3
-0.706, 8.062e-3
-0.705, 7.969e-3
-0.704, 7.877e-3
-0.703, 7.785e-3
-0.702, 7.698e-3
-0.701, 7.609e-3
-0.700, 7.523e-3
-0.699, 7.442e-3
-0.698, 7.362e-3
-0.697, 7.275e-3
-0.696, 7.193e-3
-0.695, 7.117e-3
-0.694, 7.032e-3
-0.693, 6.950e-3
-0.692, 6.880e-3
-0.691, 6.831e-3
-0.690, 6.766e-3
-0.689, 6.696e-3
-0.688, 6.624e-3
-0.687, 6.543e-3
-0.686, 6.477e-3
-0.685, 6.425e-3
-0.684, 6.337e-3
-0.683, 6.263e-3
-0.682, 6.181e-3
-0.681, 6.097e-3
-0.680, 6.020e-3
-0.679, 5.943e-3
-0.678, 5.867e-3
-0.677, 5.793e-3
-0.676, 5.721e-3
-0.675, 5.657e-3
-0.674, 5.589e-3
-0.673, 5.514e-3
-0.672, 5.445e-3
-0.671, 5.371e-3
-0.670, 5.306e-3
-0.669, 5.247e-3
-0.668, 5.185e-3
-0.667, 5.142e-3
-0.666, 5.096e-3
-0.665, 5.056e-3
-0.664, 4.986e-3
-0.663, 4.924e-3
-0.662, 4.868e-3
-0.661, 4.792e-3
-0.660, 4.726e-3
-0.659, 4.673e-3
-0.658, 4.600e-3
-0.657, 4.528e-3
-0.656, 4.462e-3
-0.655, 4.397e-3
-0.654, 4.337e-3
-0.653, 4.270e-3
-0.652, 4.200e-3
-0.651, 4.143e-3
-0.650, 4.076e-3
-0.649, 4.011e-3
-0.648, 3.946e-3
-0.647, 3.875e-3
-0.646, 3.809e-3
-0.645, 3.768e-3
-0.644, 3.717e-3
-0.643, 3.677e-3
-0.642, 3.617e-3
-0.641, 3.558e-3
-0.640, 3.499e-3
-0.639, 3.460e-3
-0.638, 3.406e-3
-0.637, 3.340e-3
-0.636, 3.274e-3
-0.635, 3.206e-3
-0.634, 3.143e-3
-0.633, 3.084e-3
-0.632, 3.021e-3
-0.631, 2.960e-3
-0.630, 2.896e-3
-0.629, 2.837e-3
-0.628, 2.780e-3
-0.627, 2.723e-3
-0.626, 2.664e-3
-0.625, 2.605e-3
-0.624, 2.553e-3
-0.623, 2.504e-3
-0.622, 2.444e-3
-0.621, 2.388e-3
-0.620, 2.339e-3
-0.619, 2.290e-3
-0.618, 2.240e-3
-0.617, 2.190e-3
-0.616, 2.136e-3
-0.615, 2.083e-3
-0.614, 2.031e-3
-0.613, 1.991e-3
-0.612, 1.957e-3
-0.611, 1.906e-3
-0.610, 1.854e-3
-0.609, 1.809e-3
-0.608, 1.762e-3
-0.607, 1.719e-3
-0.606, 1.669e-3
-0.605, 1.614e-3
-0.604, 1.558e-3
-0.603, 1.503e-3
-0.602, 1.448e-3
-0.601, 1.396e-3
-0.600, 1.348e-3
-0.599, 1.300e-3
-0.598, 1.250e-3
-0.597, 1.200e-3
-0.596, 1.150e-3
-0.595, 1.096e-3
-0.594, 1.050e-3
-0.593, 1.004e-3
-0.592, 9.528e-4
-0.591, 9.060e-4
-0.590, 8.667e-4
-0.589, 8.219e-4
-0.588, 7.745e-4
-0.587, 7.294e-4
-0.586, 6.833e-4
-0.585, 6.392e-4
-0.584, 6.080e-4
-0.583, 5.789e-4
-0.582, 5.361e-4
-0.581, 4.871e-4
-0.580, 4.338e-4
-0.579, 3.808e-4
-0.578, 3.307e-4
-0.577, 2.814e-4
-0.576, 2.306e-4
-0.575, 1.805e-4
-0.574, 1.324e-4
-0.573, 8.885e-5
-0.572, 4.006e-5
-0.571, -7.756e-6
-0.570, -5.645e-5
-0.569, -1.036e-4
-0.568, -1.519e-4
-0.567, -1.941e-4
-0.566, -2.379e-4
-0.565, -2.871e-4
-0.564, -3.321e-4
-0.563, -3.752e-4
-0.562, -4.186e-4
-0.561, -4.647e-4
-0.560, -5.082e-4
-0.559, -5.524e-4
-0.558, -5.962e-4
-0.557, -6.391e-4
-0.556, -6.830e-4
-0.555, -7.160e-4
-0.554, -7.535e-4
-0.553, -7.922e-4
-0.552, -8.348e-4
-0.551, -8.781e-4
-0.550, -9.051e-4
-0.549, -8.936e-4
-0.548, -9.089e-4
-0.547, -9.457e-4
-0.546, -9.899e-4
-0.545, -1.030e-3
-0.544, -1.075e-3
-0.543, -1.120e-3
-0.542, -1.160e-3
-0.541, -1.202e-3
-0.540, -1.241e-3
-0.539, -1.286e-3
-0.538, -1.328e-3
-0.537, -1.372e-3
-0.536, -1.414e-3
-0.535, -1.454e-3
-0.534, -1.491e-3
-0.533, -1.529e-3
-0.532, -1.568e-3
-0.531, -1.606e-3
-0.530, -1.646e-3
-0.529, -1.686e-3
-0.528, -1.724e-3
-0.527, -1.760e-3
-0.526, -1.798e-3
-0.525, -1.837e-3
-0.524, -1.875e-3
-0.523, -1.917e-3
-0.522, -1.959e-3
-0.521, -1.997e-3
-0.520, -2.033e-3
-0.519, -2.070e-3
-0.518, -2.109e-3
-0.517, -2.146e-3
-0.516, -2.175e-3
-0.515, -2.199e-3
-0.514, -2.230e-3
-0.513, -2.267e-3
-0.512, -2.303e-3
-0.511, -2.333e-3
-0.510, -2.368e-3
-0.509, -2.407e-3
-0.508, -2.445e-3
-0.507, -2.483e-3
-0.506, -2.519e-3
-0.505, -2.559e-3
-0.504, -2.596e-3
-0.503, -2.630e-3
-0.502, -2.667e-3
-0.501, -2.707e-3
-0.500, -2.741e-3
-0.499, -2.778e-3
-0.498, -2.813e-3
-0.497, -2.851e-3
-0.496, -2.888e-3
-0.495, -2.920e-3
-0.494, -2.954e-3
-0.493, -2.991e-3
-0.492, -3.028e-3
-0.491, -3.057e-3
-0.490, -3.086e-3
-0.489, -3.120e-3
-0.488, -3.154e-3
-0.487, -3.191e-3
-0.486, -3.226e-3
-0.485, -3.261e-3
-0.484, -3.295e-3
-0.483, -3.328e-3
-0.482, -3.363e-3
-0.481, -3.394e-3
-0.480, -3.426e-3
-0.479, -3.463e-3
-0.478, -3.499e-3
-0.477, -3.532e-3
-0.476, -3.566e-3
-0.475, -3.597e-3
-0.474, -3.629e-3
-0.473, -3.657e-3
-0.472, -3.689e-3
-0.471, -3.722e-3
-0.470, -3.754e-3
-0.469, -3.787e-3
-0.468, -3.816e-3
-0.467, -3.848e-3
-0.466, -3.881e-3
-0.465, -3.909e-3
-0.464, -3.934e-3
-0.463, -3.967e-3
-0.462, -3.999e-3
-0.461, -4.031e-3
-0.460, -4.062e-3
-0.459, -4.094e-3
-0.458, -4.124e-3
-0.457, -4.158e-3
-0.456, -4.188e-3
-0.455, -4.220e-3
-0.454, -4.252e-3
-0.453, -4.284e-3
-0.452, -4.314e-3
-0.451, -4.345e-3
-0.450, -4.377e-3
-0.449, -4.406e-3
-0.448, -4.436e-3
-0.447, -4.467e-3
-0.446, -4.496e-3
-0.445, -4.528e-3
-0.444, -4.559e-3
-0.443, -4.589e-3
-0.442, -4.619e-3
-0.441, -4.651e-3
-0.440, -4.679e-3
-0.439, -4.707e-3
-0.438, -4.737e-3
-0.437, -4.768e-3
-0.436, -4.797e-3
-0.435, -4.827e-3
-0.434, -4.857e-3
-0.433, -4.885e-3
-0.432, -4.913e-3
-0.431, -4.944e-3
-0.430, -4.973e-3
-0.429, -5.004e-3
-0.428, -5.034e-3
-0.427, -5.062e-3
-0.426, -5.090e-3
-0.425, -5.118e-3
-0.424, -5.146e-3
-0.423, -5.175e-3
-0.422, -5.203e-3
-0.421, -5.232e-3
-0.420, -5.261e-3
-0.419, -5.290e-3
-0.418, -5.319e-3
-0.417, -5.345e-3
-0.416, -5.373e-3
-0.415, -5.402e-3
-0.414, -5.427e-3
-0.413, -5.456e-3
-0.412, -5.483e-3
-0.411, -5.508e-3
-0.410, -5.538e-3
-0.409, -5.569e-3
-0.408, -5.595e-3
-0.407, -5.623e-3
-0.406, -5.648e-3
-0.405, -5.675e-3
-0.404, -5.703e-3
-0.403, -5.730e-3
-0.402, -5.758e-3
-0.401, -5.784e-3
-0.400, -5.811e-3
-0.399, -5.837e-3
-0.398, -5.863e-3
-0.397, -5.890e-3
-0.396, -5.916e-3
-0.395, -5.941e-3
-0.394, -5.967e-3
-0.393, -5.994e-3
-0.392, -6.021e-3
-0.391, -6.046e-3
-0.390, -6.074e-3
-0.389, -6.102e-3
-0.388, -6.126e-3
-0.387, -6.153e-3
-0.386, -6.177e-3
-0.385, -6.204e-3
-0.384, -6.231e-3
-0.383, -6.255e-3
-0.382, -6.282e-3
-0.381, -6.307e-3
-0.380, -6.333e-3
-0.379, -6.359e-3
-0.378, -6.383e-3
-0.377, -6.411e-3
-0.376, -6.437e-3
-0.375, -6.462e-3
-0.374, -6.486e-3
-0.373, -6.513e-3
-0.372, -6.538e-3
-0.371, -6.563e-3
-0.370, -6.586e-3
-0.369, -6.606e-3
-0.368, -6.630e-3
-0.367, -6.656e-3
-0.366, -6.681e-3
-0.365, -6.704e-3
-0.364, -6.729e-3
-0.363, -6.754e-3
-0.362, -6.779e-3
-0.361, -6.803e-3
-0.360, -6.828e-3
-0.359, -6.852e-3
-0.358, -6.877e-3
-0.357, -6.902e-3
-0.356, -6.926e-3
-0.355, -6.951e-3
-0.354, -6.975e-3
-0.353, -6.999e-3
-0.352, -7.024e-3
-0.351, -7.048e-3
-0.350, -7.070e-3
-0.349, -7.094e-3
-0.348, -7.118e-3
-0.347, -7.143e-3
-0.346, -7.167e-3
-0.345, -7.190e-3
-0.344, -7.214e-3
-0.343, -7.238e-3
-0.342, -7.262e-3
-0.341, -7.286e-3
-0.340, -7.310e-3
-0.339, -7.333e-3
-0.338, -7.357e-3
-0.337, -7.381e-3
-0.336, -7.404e-3
-0.335, -7.428e-3
-0.334, -7.451e-3
-0.333, -7.476e-3
-0.332, -7.499e-3
-0.331, -7.522e-3
-0.330, -7.544e-3
-0.329, -7.567e-3
-0.328, -7.589e-3
-0.327, -7.612e-3
-0.326, -7.634e-3
-0.325, -7.658e-3
-0.324, -7.680e-3
-0.323, -7.703e-3
-0.322, -7.727e-3
-0.321, -7.751e-3
-0.320, -7.774e-3
-0.319, -7.797e-3
-0.318, -7.821e-3
-0.317, -7.843e-3
-0.316, -7.864e-3
-0.315, -7.885e-3
-0.314, -7.909e-3
-0.313, -7.931e-3
-0.312, -7.953e-3
-0.311, -7.976e-3
-0.310, -7.998e-3
-0.309, -8.021e-3
-0.308, -8.043e-3
-0.307, -8.067e-3
-0.306, -8.089e-3
-0.305, -8.110e-3
-0.304, -8.132e-3
-0.303, -8.155e-3
-0.302, -8.175e-3
-0.301, -8.198e-3
-0.300, -8.219e-3
-0.299, -8.242e-3
-0.298, -8.264e-3
-0.297, -8.285e-3
-0.296, -8.306e-3
-0.295, -8.326e-3
-0.294, -8.348e-3
-0.293, -8.369e-3
-0.292, -8.393e-3
-0.291, -8.414e-3
-0.290, -8.436e-3
-0.289, -8.458e-3
-0.288, -8.480e-3
-0.287, -8.503e-3
-0.286, -8.522e-3
-0.285, -8.542e-3
-0.284, -8.563e-3
-0.283, -8.585e-3
-0.282, -8.607e-3
-0.281, -8.628e-3
-0.280, -8.648e-3
-0.279, -8.670e-3
-0.278, -8.691e-3
-0.277, -8.713e-3
-0.276, -8.733e-3
-0.275, -8.754e-3
-0.274, -8.774e-3
-0.273, -8.793e-3
-0.272, -8.814e-3
-0.271, -8.835e-3
-0.270, -8.856e-3
-0.269, -8.878e-3
-0.268, -8.898e-3
-0.267, -8.920e-3
-0.266, -8.941e-3
-0.265, -8.960e-3
-0.264, -8.981e-3
-0.263, -9.001e-3
-0.262, -9.023e-3
-0.261, -9.043e-3
-0.260, -9.062e-3
-0.259, -9.082e-3
-0.258, -9.104e-3
-0.257, -9.124e-3
-0.256, -9.146e-3
-0.255, -9.166e-3
-0.254, -9.186e-3
-0.253, -9.206e-3
-0.252, -9.225e-3
-0.251, -9.245e-3
-0.250, -9.266e-3
-0.249, -9.286e-3
-0.248, -9.307e-3
-0.247, -9.328e-3
-0.246, -9.348e-3
-0.245, -9.367e-3
-0.244, -9.386e-3
-0.243, -9.406e-3
-0.242, -9.425e-3
-0.241, -9.444e-3
-0.240, -9.464e-3
-0.239, -9.484e-3
-0.238, -9.503e-3
-0.237, -9.524e-3
-0.236, -9.544e-3
-0.235, -9.563e-3
-0.234, -9.582e-3
-0.233, -9.603e-3
-0.232, -9.622e-3
-0.231, -9.643e-3
-0.230, -9.663e-3
-0.229, -9.683e-3
-0.228, -9.703e-3
-0.227, -9.723e-3
-0.226, -9.743e-3
-0.225, -9.763e-3
-0.224, -9.782e-3
-0.223, -9.802e-3
-0.222, -9.821e-3
-0.221, -9.840e-3
-0.220, -9.860e-3
-0.219, -9.879e-3
-0.218, -9.900e-3
-0.217, -9.920e-3
-0.216, -9.940e-3
-0.215, -9.959e-3
-0.214, -9.977e-3
-0.213, -9.996e-3
-0.212, -1.001e-2
-0.211, -1.003e-2
-0.210, -1.005e-2
-0.209, -1.007e-2
-0.208, -1.009e-2
-0.207, -1.011e-2
-0.206, -1.013e-2
-0.205, -1.015e-2
-0.204, -1.017e-2
-0.203, -1.019e-2
-0.202, -1.021e-2
-0.201, -1.023e-2
-0.200, -1.025e-2
-0.199, -1.026e-2
-0.198, -1.028e-2
-0.197, -1.030e-2
-0.196, -1.032e-2
-0.195, -1.034e-2
-0.194, -1.036e-2
-0.193, -1.038e-2
-0.192, -1.040e-2
-0.191, -1.042e-2
-0.190, -1.044e-2
-0.189, -1.046e-2
-0.188, -1.048e-2
-0.187, -1.049e-2
-0.186, -1.051e-2
-0.185, -1.053e-2
-0.184, -1.055e-2
-0.183, -1.057e-2
-0.182, -1.059e-2
-0.181, -1.061e-2
-0.180, -1.063e-2
-0.179, -1.065e-2
-0.178, -1.067e-2
-0.177, -1.069e-2
-0.176, -1.070e-2
-0.175, -1.072e-2
-0.174, -1.074e-2
-0.173, -1.076e-2
-0.172, -1.078e-2
-0.171, -1.080e-2
-0.170, -1.082e-2
-0.169, -1.084e-2
-0.168, -1.086e-2
-0.167, -1.087e-2
-0.166, -1.089e-2
-0.165, -1.091e-2
-0.164, -1.093e-2
-0.163, -1.095e-2
-0.162, -1.097e-2
-0.161, -1.098e-2
-0.160, -1.100e-2
-0.159, -1.102e-2
-0.158, -1.104e-2
-0.157, -1.106e-2
-0.156, -1.108e-2
-0.155, -1.110e-2
-0.154, -1.112e-2
-0.153, -1.114e-2
-0.152, -1.116e-2
-0.151, -1.118e-2
-0.150, -1.119e-2
-0.149, -1.121e-2
-0.148, -1.123e-2
-0.147, -1.125e-2
-0.146, -1.127e-2
-0.145, -1.129e-2
-0.144, -1.131e-2
-0.143, -1.132e-2
-0.142, -1.134e-2
-0.141, -1.136e-2
-0.140, -1.138e-2
-0.139, -1.140e-2
-0.138, -1.142e-2
-0.137, -1.144e-2
-0.136, -1.146e-2
-0.135, -1.148e-2
-0.134, -1.150e-2
-0.133, -1.152e-2
-0.132, -1.154e-2
-0.131, -1.156e-2
-0.130, -1.158e-2
-0.129, -1.159e-2
-0.128, -1.161e-2
-0.127, -1.163e-2
-0.126, -1.165e-2
-0.125, -1.167e-2
-0.124, -1.169e-2
-0.123, -1.171e-2
-0.122, -1.172e-2
-0.121, -1.174e-2
-0.120, -1.176e-2
-0.119, -1.178e-2
-0.118, -1.180e-2
-0.117, -1.182e-2
-0.116, -1.184e-2
-0.115, -1.186e-2
-0.114, -1.188e-2
-0.113, -1.189e-2
-0.112, -1.191e-2
-0.111, -1.193e-2
-0.110, -1.195e-2
-0.109, -1.197e-2
-0.108, -1.199e-2
-0.107, -1.201e-2
-0.106, -1.203e-2
-0.105, -1.204e-2
-0.104, -1.206e-2
-0.103, -1.208e-2
-0.102, -1.210e-2
-0.101, -1.212e-2
-0.100, -1.214e-2
-0.099, -1.216e-2
-0.098, -1.217e-2
-0.097, -1.219e-2
-0.096, -1.221e-2
-0.095, -1.223e-2
-0.094, -1.225e-2
-0.093, -1.226e-2
-0.092, -1.228e-2
-0.091, -1.230e-2
-0.090, -1.232e-2
-0.089, -1.234e-2
-0.088, -1.236e-2
-0.087, -1.238e-2
-0.086, -1.240e-2
-0.085, -1.241e-2
-0.084, -1.243e-2
-0.083, -1.245e-2
-0.082, -1.247e-2
-0.081, -1.249e-2
-0.080, -1.251e-2
-0.079, -1.252e-2
-0.078, -1.254e-2
-0.077, -1.256e-2
-0.076, -1.258e-2
-0.075, -1.260e-2
-0.074, -1.262e-2
-0.073, -1.264e-2
-0.072, -1.265e-2
-0.071, -1.267e-2
-0.070, -1.269e-2
-0.069, -1.271e-2
-0.068, -1.273e-2
-0.067, -1.275e-2
-0.066, -1.277e-2
-0.065, -1.279e-2
-0.064, -1.281e-2
-0.063, -1.282e-2
-0.062, -1.284e-2
-0.061, -1.286e-2
-0.060, -1.288e-2
-0.059, -1.290e-2
-0.058, -1.291e-2
-0.057, -1.293e-2
-0.056, -1.295e-2
-0.055, -1.297e-2
-0.054, -1.299e-2
-0.053, -1.301e-2
-0.052, -1.303e-2
-0.051, -1.305e-2
-0.050, -1.307e-2
-0.049, -1.308e-2
-0.048, -1.310e-2
-0.047, -1.312e-2
-0.046, -1.314e-2
-0.045, -1.316e-2
-0.044, -1.318e-2
-0.043, -1.320e-2
-0.042, -1.321e-2
-0.041, -1.323e-2
-0.040, -1.325e-2
-0.039, -1.327e-2
-0.038, -1.329e-2
-0.037, -1.331e-2
-0.036, -1.333e-2
-0.035, -1.334e-2
-0.034, -1.336e-2
-0.033, -1.338e-2
-0.032, -1.340e-2
-0.031, -1.342e-2
-0.030, -1.344e-2
-0.029, -1.346e-2
-0.028, -1.348e-2
-0.027, -1.350e-2
-0.026, -1.352e-2
-0.025, -1.354e-2
-0.024, -1.356e-2
-0.023, -1.358e-2
-0.022, -1.360e-2
-0.021, -1.362e-2
-0.020, -1.364e-2
-0.019, -1.366e-2
-0.018, -1.367e-2
-0.017, -1.369e-2
-0.016, -1.371e-2
-0.015, -1.373e-2
-0.014, -1.375e-2
-0.013, -1.377e-2
-0.012, -1.379e-2
-0.011, -1.380e-2
-0.010, -1.382e-2
-0.009, -1.384e-2
-0.008, -1.386e-2
-0.007, -1.388e-2
-0.006, -1.389e-2
-0.005, -1.391e-2
-0.004, -1.393e-2
-0.003, -1.395e-2
-0.002, -1.397e-2
-0.001, -1.399e-2
-0.000, -1.401e-2
0.001, -1.403e-2
0.002, -1.405e-2
0.003, -1.406e-2
0.004, -1.408e-2
0.005, -1.410e-2
0.006, -1.412e-2
0.007, -1.414e-2
0.008, -1.415e-2
0.009, -1.417e-2
0.010, -1.419e-2
0.011, -1.421e-2
0.012, -1.423e-2
0.013, -1.425e-2
0.014, -1.427e-2
0.015, -1.429e-2
0.016, -1.430e-2
0.017, -1.432e-2
0.018, -1.434e-2
0.019, -1.436e-2
0.020, -1.438e-2
0.021, -1.440e-2
0.022, -1.441e-2
0.023, -1.443e-2
0.024, -1.445e-2
0.025, -1.447e-2
0.026, -1.449e-2
0.027, -1.451e-2
0.028, -1.453e-2
0.029, -1.454e-2
0.030, -1.456e-2
0.031, -1.458e-2
0.032, -1.460e-2
0.033, -1.462e-2
0.034, -1.464e-2
0.035, -1.466e-2
0.036, -1.468e-2
0.037, -1.470e-2
0.038, -1.472e-2
0.039, -1.473e-2
0.040, -1.475e-2
0.041, -1.477e-2
0.042, -1.479e-2
0.043, -1.481e-2
0.044, -1.483e-2
0.045, -1.485e-2
0.046, -1.487e-2
0.047, -1.489e-2
0.048, -1.490e-2
0.049, -1.492e-2
0.050, -1.494e-2
0.051, -1.496e-2
0.052, -1.498e-2
0.053, -1.500e-2
0.054, -1.502e-2
0.055, -1.504e-2
0.056, -1.506e-2
0.057, -1.508e-2
0.058, -1.510e-2
0.059, -1.511e-2
0.060, -1.513e-2
0.061, -1.515e-2
0.062, -1.517e-2
0.063, -1.519e-2
0.064, -1.521e-2
0.065, -1.523e-2
0.066, -1.525e-2
0.067, -1.527e-2
0.068, -1.529e-2
0.069, -1.531e-2
0.070, -1.533e-2
0.071, -1.535e-2
0.072, -1.537e-2
0.073, -1.539e-2
0.074, -1.541e-2
0.075, -1.543e-2
0.076, -1.544e-2
0.077, -1.546e-2
0.078, -1.548e-2
0.079, -1.550e-2
0.080, -1.552e-2
0.081, -1.554e-2
0.082, -1.556e-2
0.083, -1.558e-2
0.084, -1.560e-2
0.085, -1.562e-2
0.086, -1.563e-2
0.087, -1.565e-2
0.088, -1.567e-2
0.089, -1.569e-2
0.090, -1.571e-2
0.091, -1.573e-2
0.092, -1.575e-2
0.093, -1.577e-2
0.094, -1.579e-2
0.095, -1.581e-2
0.096, -1.583e-2
0.097, -1.585e-2
0.098, -1.587e-2
0.099, -1.589e-2
0.100, -1.591e-2
0.101, -1.593e-2
0.102, -1.595e-2
0.103, -1.597e-2
0.104, -1.599e-2
0.105, -1.601e-2
0.106, -1.603e-2
0.107, -1.604e-2
0.108, -1.606e-2
0.109, -1.608e-2
0.110, -1.610e-2
0.111, -1.612e-2
0.112, -1.614e-2
0.113, -1.616e-2
0.114, -1.618e-2
0.115, -1.620e-2
0.116, -1.622e-2
0.117, -1.624e-2
0.118, -1.626e-2
0.119, -1.628e-2
0.120, -1.630e-2
0.121, -1.632e-2
0.122, -1.634e-2
0.123, -1.636e-2
0.124, -1.638e-2
0.125, -1.640e-2
0.126, -1.642e-2
0.127, -1.644e-2
0.128, -1.646e-2
0.129, -1.648e-2
0.130, -1.650e-2
0.131, -1.652e-2
0.132, -1.654e-2
0.133, -1.655e-2
0.134, -1.657e-2
0.135, -1.659e-2
0.136, -1.661e-2
0.137, -1.663e-2
0.138, -1.665e-2
0.139, -1.667e-2
0.140, -1.669e-2
0.141, -1.671e-2
0.142, -1.673e-2
0.143, -1.675e-2
0.144, -1.677e-2
0.145, -1.679e-2
0.146, -1.681e-2
0.147, -1.683e-2
0.148, -1.685e-2
0.149, -1.687e-2
0.150, -1.689e-2
0.151, -1.691e-2
0.152, -1.693e-2
0.153, -1.695e-2
0.154, -1.697e-2
0.155, -1.699e-2
0.156, -1.701e-2
0.157, -1.703e-2
0.158, -1.705e-2
0.159, -1.707e-2
0.160, -1.709e-2
0.161, -1.711e-2
0.162, -1.713e-2
0.163, -1.715e-2
0.164, -1.717e-2
0.165, -1.719e-2
0.166, -1.721e-2
0.167, -1.723e-2
0.168, -1.724e-2
0.169, -1.726e-2
0.170, -1.728e-2
0.171, -1.730e-2
0.172, -1.732e-2
0.173, -1.734e-2
0.174, -1.736e-2
0.175, -1.738e-2
0.176, -1.740e-2
0.177, -1.742e-2
0.178, -1.744e-2
0.179, -1.746e-2
0.180, -1.748e-2
0.181, -1.750e-2
0.182, -1.752e-2
0.183, -1.754e-2
0.184, -1.756e-2
0.185, -1.758e-2
0.186, -1.760e-2
0.187, -1.762e-2
0.188, -1.764e-2
0.189, -1.766e-2
0.190, -1.768e-2
0.191, -1.770e-2
0.192, -1.772e-2
0.193, -1.774e-2
0.194, -1.776e-2
0.195, -1.778e-2
0.196, -1.780e-2
0.197, -1.782e-2
0.198, -1.784e-2
0.199, -1.786e-2
0.200, -1.788e-2
0.201, -1.790e-2
0.202, -1.792e-2
0.203, -1.795e-2
0.204, -1.796e-2
0.205, -1.799e-2
0.206, -1.800e-2
0.207, -1.802e-2
0.208, -1.804e-2
0.209, -1.806e-2
0.210, -1.808e-2
0.211, -1.810e-2
0.212, -1.812e-2
0.213, -1.814e-2
0.214, -1.816e-2
0.215, -1.818e-2
0.216, -1.820e-2
0.217, -1.822e-2
0.218, -1.824e-2
0.219, -1.826e-2
0.220, -1.828e-2
0.221, -1.830e-2
0.222, -1.832e-2
0.223, -1.834e-2
0.224, -1.836e-2
0.225, -1.838e-2
0.226, -1.840e-2
0.227, -1.842e-2
0.228, -1.844e-2
0.229, -1.846e-2
0.230, -1.848e-2
0.231, -1.850e-2
0.232, -1.852e-2
0.233, -1.854e-2
0.234, -1.856e-2
0.235, -1.858e-2
0.236, -1.860e-2
0.237, -1.862e-2
0.238, -1.864e-2
0.239, -1.866e-2
0.240, -1.868e-2
0.241, -1.870e-2
0.242, -1.872e-2
0.243, -1.874e-2
0.244, -1.876e-2
0.245, -1.878e-2
0.246, -1.880e-2
0.247, -1.882e-2
0.248, -1.884e-2
0.249, -1.886e-2
0.250, -1.888e-2
0.251, -1.890e-2
0.252, -1.892e-2
0.253, -1.894e-2
0.254, -1.896e-2
0.255, -1.898e-2
0.256, -1.900e-2
0.257, -1.902e-2
0.258, -1.904e-2
0.259, -1.906e-2
0.260, -1.908e-2
0.261, -1.910e-2
0.262, -1.912e-2
0.263, -1.914e-2
0.264, -1.916e-2
0.265, -1.918e-2
0.266, -1.920e-2
0.267, -1.922e-2
0.268, -1.924e-2
0.269, -1.926e-2
0.270, -1.928e-2
0.271, -1.929e-2
0.272, -1.931e-2
0.273, -1.933e-2
0.274, -1.934e-2
0.275, -1.936e-2
0.276, -1.938e-2
0.277, -1.940e-2
0.278, -1.942e-2
0.279, -1.945e-2
0.280, -1.947e-2
0.281, -1.949e-2
0.282, -1.951e-2
0.283, -1.953e-2
0.284, -1.955e-2
0.285, -1.957e-2
0.286, -1.959e-2
0.287, -1.961e-2
0.288, -1.963e-2
0.289, -1.965e-2
0.290, -1.967e-2
0.291, -1.969e-2
0.292, -1.971e-2
0.293, -1.973e-2
0.294, -1.975e-2
0.295, -1.977e-2
0.296, -1.979e-2
0.297, -1.981e-2
0.298, -1.983e-2
0.299, -1.985e-2
0.300, -1.987e-2
0.301, -1.989e-2
0.302, -1.991e-2
0.303, -1.993e-2
0.304, -1.995e-2
0.305, -1.997e-2
0.306, -1.999e-2
0.307, -2.001e-2
0.308, -2.003e-2
0.309, -2.005e-2
0.310, -2.007e-2
0.311, -2.009e-2
0.312, -2.011e-2
0.313, -2.013e-2
0.314, -2.015e-2
0.315, -2.017e-2
0.316, -2.019e-2
0.317, -2.021e-2
0.318, -2.023e-2
0.319, -2.025e-2
0.320, -2.027e-2
0.321, -2.029e-2
0.322, -2.031e-2
0.323, -2.033e-2
0.324, -2.035e-2
0.325, -2.037e-2
0.326, -2.039e-2
0.327, -2.041e-2
0.328, -2.043e-2
0.329, -2.045e-2
0.330, -2.047e-2
0.331, -2.049e-2
0.332, -2.051e-2
0.333, -2.053e-2
0.334, -2.055e-2
0.335, -2.057e-2
0.336, -2.059e-2
0.337, -2.062e-2
0.338, -2.063e-2
0.339, -2.066e-2
0.340, -2.068e-2
0.341, -2.069e-2
0.342, -2.072e-2
0.343, -2.074e-2
0.344, -2.076e-2
0.345, -2.078e-2
0.346, -2.080e-2
0.347, -2.082e-2
0.348, -2.084e-2
0.349, -2.086e-2
0.350, -2.087e-2
0.351, -2.089e-2
0.352, -2.091e-2
0.353, -2.094e-2
0.354, -2.095e-2
0.355, -2.097e-2
0.356, -2.099e-2
0.357, -2.101e-2
0.358, -2.104e-2
0.359, -2.106e-2
0.360, -2.107e-2
0.361, -2.110e-2
0.362, -2.111e-2
0.363, -2.113e-2
0.364, -2.115e-2
0.365, -2.117e-2
0.366, -2.119e-2
0.367, -2.121e-2
0.368, -2.123e-2
0.369, -2.125e-2
0.370, -2.127e-2
0.371, -2.129e-2
0.372, -2.131e-2
0.373, -2.133e-2
0.374, -2.135e-2
0.375, -2.137e-2
0.376, -2.139e-2
0.377, -2.141e-2
0.378, -2.143e-2
0.379, -2.145e-2
0.380, -2.147e-2
0.381, -2.149e-2
0.382, -2.151e-2
0.383, -2.152e-2
0.384, -2.155e-2
0.385, -2.157e-2
0.386, -2.158e-2
0.387, -2.161e-2
0.388, -2.163e-2
0.389, -2.165e-2
0.390, -2.166e-2
0.391, -2.168e-2
0.392, -2.170e-2
0.393, -2.172e-2
0.394, -2.174e-2
0.395, -2.176e-2
0.396, -2.179e-2
0.397, -2.180e-2
0.398, -2.182e-2
0.399, -2.184e-2
0.400, -2.187e-2
0.401, -2.188e-2
0.402, -2.190e-2
0.403, -2.192e-2
0.404, -2.194e-2
0.405, -2.196e-2
0.406, -2.198e-2
0.407, -2.200e-2
0.408, -2.202e-2
0.409, -2.204e-2
0.410, -2.207e-2
0.411, -2.209e-2
0.412, -2.211e-2
0.413, -2.213e-2
0.414, -2.215e-2
0.415, -2.217e-2
0.416, -2.219e-2
0.417, -2.221e-2
0.418, -2.223e-2
0.419, -2.225e-2
0.420, -2.227e-2
0.421, -2.229e-2
0.422, -2.231e-2
0.423, -2.233e-2
0.424, -2.235e-2
0.425, -2.237e-2
0.426, -2.239e-2
0.427, -2.241e-2
0.428, -2.243e-2
0.429, -2.245e-2
0.430, -2.247e-2
0.431, -2.249e-2
0.432, -2.251e-2
0.433, -2.253e-2
0.434, -2.255e-2
0.435, -2.258e-2
0.436, -2.260e-2
0.437, -2.262e-2
0.438, -2.264e-2
0.439, -2.266e-2
0.440, -2.268e-2
0.441, -2.270e-2
0.442, -2.272e-2
0.443, -2.275e-2
0.444, -2.276e-2
0.445, -2.278e-2
0.446, -2.280e-2
0.447, -2.282e-2
0.448, -2.285e-2
0.449, -2.287e-2
0.450, -2.289e-2
0.451, -2.291e-2
0.452, -2.293e-2
0.453, -2.296e-2
0.454, -2.298e-2
0.455, -2.300e-2
0.456, -2.302e-2
0.457, -2.305e-2
0.458, -2.307e-2
0.459, -2.309e-2
0.460, -2.311e-2
0.461, -2.314e-2
0.462, -2.316e-2
0.463, -2.318e-2
0.464, -2.321e-2
0.465, -2.323e-2
0.466, -2.325e-2
0.467, -2.328e-2
0.468, -2.330e-2
0.469, -2.332e-2
0.470, -2.335e-2
0.471, -2.337e-2
0.472, -2.339e-2
0.473, -2.342e-2
0.474, -2.344e-2
0.475, -2.346e-2
0.476, -2.349e-2
0.477, -2.351e-2
0.478, -2.353e-2
0.479, -2.356e-2
0.480, -2.358e-2
0.481, -2.360e-2
0.482, -2.362e-2
0.483, -2.365e-2
0.484, -2.367e-2
0.485, -2.370e-2
0.486, -2.372e-2
0.487, -2.375e-2
0.488, -2.377e-2
0.489, -2.379e-2
0.490, -2.382e-2
0.491, -2.384e-2
0.492, -2.386e-2
0.493, -2.389e-2
0.494, -2.391e-2
0.495, -2.394e-2
0.496, -2.396e-2
0.497, -2.399e-2
0.498, -2.401e-2
0.499, -2.403e-2
0.500, -2.406e-2
0.501, -2.408e-2
0.502, -2.411e-2
0.503, -2.413e-2
0.504, -2.416e-2
0.505, -2.418e-2
0.506, -2.420e-2
0.507, -2.423e-2
0.508, -2.425e-2
0.509, -2.427e-2
0.510, -2.430e-2
0.511, -2.432e-2
0.512, -2.435e-2
0.513, -2.437e-2
0.514, -2.439e-2
0.515, -2.442e-2
0.516, -2.444e-2
0.517, -2.446e-2
0.518, -2.449e-2
0.519, -2.451e-2
0.520, -2.453e-2
0.521, -2.455e-2
0.522, -2.458e-2
0.523, -2.460e-2
0.524, -2.462e-2
0.525, -2.465e-2
0.526, -2.467e-2
0.527, -2.470e-2
0.528, -2.472e-2
0.529, -2.474e-2
0.530, -2.476e-2
0.531, -2.478e-2
0.532, -2.480e-2
0.533, -2.483e-2
0.534, -2.485e-2
0.535, -2.487e-2
0.536, -2.489e-2
0.537, -2.491e-2
0.538, -2.493e-2
0.539, -2.495e-2
0.540, -2.497e-2
0.541, -2.499e-2
0.542, -2.501e-2
0.543, -2.503e-2
0.544, -2.505e-2
0.545, -2.507e-2
0.546, -2.509e-2
0.547, -2.511e-2
0.548, -2.513e-2
0.549, -2.515e-2
0.550, -2.517e-2
0.551, -2.518e-2
0.552, -2.520e-2
0.553, -2.523e-2
0.554, -2.524e-2
0.555, -2.526e-2
0.556, -2.528e-2
0.557, -2.529e-2
0.558, -2.531e-2
0.559, -2.533e-2
0.560, -2.535e-2
0.561, -2.536e-2
0.562, -2.538e-2
0.563, -2.540e-2
0.564, -2.542e-2
0.565, -2.543e-2
0.566, -2.545e-2
0.567, -2.546e-2
0.568, -2.548e-2
0.569, -2.550e-2
0.570, -2.551e-2
0.571, -2.553e-2
0.572, -2.554e-2
0.573, -2.556e-2
0.574, -2.557e-2
0.575, -2.559e-2
0.576, -2.560e-2
0.577, -2.562e-2
0.578, -2.564e-2
0.579, -2.566e-2
0.580, -2.567e-2
0.581, -2.569e-2
0.582, -2.570e-2
0.583, -2.572e-2
0.584, -2.573e-2
0.585, -2.575e-2
0.586, -2.576e-2
0.587, -2.578e-2
0.588, -2.579e-2
0.589, -2.580e-2
0.590, -2.582e-2
0.591, -2.583e-2
0.592, -2.585e-2
0.593, -2.586e-2
0.594, -2.588e-2
0.595, -2.589e-2
0.596, -2.590e-2
0.597, -2.592e-2
0.598, -2.593e-2
0.599, -2.595e-2
0.600, -2.596e-2
0.601, -2.597e-2
0.602, -2.599e-2
0.603, -2.600e-2
0.604, -2.601e-2
0.605, -2.602e-2
0.606, -2.604e-2
0.607, -2.605e-2
0.608, -2.606e-2
0.609, -2.607e-2
0.610, -2.609e-2
0.611, -2.610e-2
0.612, -2.611e-2
0.613, -2.612e-2
0.614, -2.614e-2
0.615, -2.615e-2
0.616, -2.616e-2
0.617, -2.617e-2
0.618, -2.618e-2
0.619, -2.619e-2
0.620, -2.621e-2
0.621, -2.622e-2
0.622, -2.623e-2
0.623, -2.624e-2
0.624, -2.625e-2
0.625, -2.626e-2
0.626, -2.627e-2
0.627, -2.628e-2
0.628, -2.629e-2
0.629, -2.630e-2
0.630, -2.631e-2
0.631, -2.632e-2
0.632, -2.633e-2
0.633, -2.634e-2
0.634, -2.636e-2
0.635, -2.637e-2
0.636, -2.638e-2
0.637, -2.639e-2
0.638, -2.640e-2
0.639, -2.641e-2
0.640, -2.641e-2
0.641, -2.643e-2
0.642, -2.644e-2
0.643, -2.645e-2
0.644, -2.646e-2
0.645, -2.647e-2
0.646, -2.648e-2
0.647, -2.649e-2
0.648, -2.650e-2
0.649, -2.651e-2
0.650, -2.651e-2
0.651, -2.653e-2
0.652, -2.654e-2
0.653, -2.655e-2
0.654, -2.655e-2
0.655, -2.656e-2
0.656, -2.658e-2
0.657, -2.659e-2
0.658, -2.660e-2
0.659, -2.661e-2
0.660, -2.662e-2
0.661, -2.662e-2
0.662, -2.663e-2
0.663, -2.664e-2
0.664, -2.665e-2
0.665, -2.666e-2
0.666, -2.667e-2
0.667, -2.668e-2
0.668, -2.669e-2
0.669, -2.670e-2
0.670, -2.671e-2
0.671, -2.672e-2
0.672, -2.673e-2
0.673, -2.674e-2
0.674, -2.675e-2
0.675, -2.676e-2
0.676, -2.677e-2
0.677, -2.678e-2
0.678, -2.679e-2
0.679, -2.680e-2
0.680, -2.681e-2
0.681, -2.682e-2
0.682, -2.683e-2
0.683, -2.684e-2
0.684, -2.685e-2
0.685, -2.686e-2
0.686, -2.687e-2
0.687, -2.688e-2
0.688, -2.689e-2
0.689, -2.690e-2
0.690, -2.691e-2
0.691, -2.692e-2
0.692, -2.693e-2
0.693, -2.694e-2
0.694, -2.695e-2
0.695, -2.696e-2
0.696, -2.697e-2
0.697, -2.698e-2
0.698, -2.699e-2
0.699, -2.700e-2
0.700, -2.701e-2
0.701, -2.702e-2
0.702, -2.703e-2
0.703, -2.704e-2
0.704, -2.705e-2
0.705, -2.706e-2
0.706, -2.707e-2
0.707, -2.707e-2
0.708, -2.708e-2
0.709, -2.709e-2
0.710, -2.710e-2
0.711, -2.711e-2
0.712, -2.712e-2
0.713, -2.713e-2
0.714, -2.714e-2
0.715, -2.715e-2
0.716, -2.716e-2
0.717, -2.717e-2
0.718, -2.718e-2
0.719, -2.719e-2
0.720, -2.720e-2
0.721, -2.721e-2
0.722, -2.722e-2
0.723, -2.724e-2
0.724, -2.725e-2
0.725, -2.726e-2
0.726, -2.727e-2
0.727, -2.727e-2
0.728, -2.729e-2
0.729, -2.730e-2
0.730, -2.731e-2
0.731, -2.732e-2
0.732, -2.733e-2
0.733, -2.734e-2
0.734, -2.735e-2
0.735, -2.736e-2
0.736, -2.737e-2
0.737, -2.738e-2
0.738, -2.739e-2
0.739, -2.740e-2
0.740, -2.741e-2
0.741, -2.742e-2
0.742, -2.743e-2
0.743, -2.744e-2
0.744, -2.744e-2
0.745, -2.745e-2
0.746, -2.746e-2
0.747, -2.747e-2
0.748, -2.749e-2
0.749, -2.750e-2
0.750, -2.751e-2
0.751, -2.752e-2
0.752, -2.753e-2
0.753, -2.754e-2
0.754, -2.755e-2
0.755, -2.756e-2
0.756, -2.757e-2
0.757, -2.757e-2
0.758, -2.759e-2
0.759, -2.760e-2
0.760, -2.761e-2
0.761, -2.762e-2
0.762, -2.763e-2
0.763, -2.763e-2
0.764, -2.764e-2
0.765, -2.765e-2
0.766, -2.766e-2
0.767, -2.767e-2
0.768, -2.768e-2
0.769, -2.769e-2
0.770, -2.770e-2
0.771, -2.771e-2
0.772, -2.772e-2
0.773, -2.773e-2
0.774, -2.774e-2
0.775, -2.775e-2
0.776, -2.776e-2
0.777, -2.777e-2
0.778, -2.778e-2
0.779, -2.779e-2
0.780, -2.780e-2
0.781, -2.780e-2
0.782, -2.781e-2
0.783, -2.782e-2
0.784, -2.783e-2
0.785, -2.784e-2
0.786, -2.785e-2
0.787, -2.786e-2
0.788, -2.787e-2
0.789, -2.788e-2
0.790, -2.789e-2
0.791, -2.790e-2
0.792, -2.791e-2
0.793, -2.792e-2
0.794, -2.793e-2
0.795, -2.793e-2
0.796, -2.794e-2
0.797, -2.795e-2
0.798, -2.796e-2
0.799, -2.797e-2
0.800, -2.793e-2
0.799, -2.767e-2
0.798, -2.741e-2
0.797, -2.719e-2
0.796, -2.698e-2
0.795, -2.678e-2
0.794, -2.659e-2
0.793, -2.641e-2
0.792, -2.624e-2
0.791, -2.607e-2
0.790, -2.591e-2
0.789, -2.575e-2
0.788, -2.559e-2
0.787, -2.544e-2
0.786, -2.529e-2
0.785, -2.514e-2
0.784, -2.500e-2
0.783, -2.486e-2
0.782, -2.472e-2
0.781, -2.458e-2
0.780, -2.444e-2
0.779, -2.431e-2
0.778, -2.418e-2
0.777, -2.404e-2
0.776, -2.391e-2
0.775, -2.378e-2
0.774, -2.366e-2
0.773, -2.353e-2
0.772, -2.341e-2
0.771, -2.328e-2
0.770, -2.316e-2
0.769, -2.304e-2
0.768, -2.292e-2
0.767, -2.280e-2
0.766, -2.268e-2
0.765, -2.257e-2
0.764, -2.245e-2
0.763, -2.233e-2
0.762, -2.222e-2
0.761, -2.211e-2
0.760, -2.200e-2
0.759, -2.189e-2
0.758, -2.178e-2
0.757, -2.167e-2
0.756, -2.156e-2
0.755, -2.145e-2
0.754, -2.135e-2
0.753, -2.124e-2
0.752, -2.114e-2
0.751, -2.104e-2
0.750, -2.093e-2
0.749, -2.083e-2
0.748, -2.073e-2
0.747, -2.062e-2
0.746, -2.052e-2
0.745, -2.042e-2
0.744, -2.033e-2
0.743, -2.023e-2
0.742, -2.013e-2
0.741, -2.003e-2
0.740, -1.993e-2
0.739, -1.984e-2
0.738, -1.974e-2
0.737, -1.965e-2
0.736, -1.955e-2
0.735, -1.945e-2
0.734, -1.936e-2
0.733, -1.928e-2
0.732, -1.919e-2
0.731, -1.910e-2
0.730, -1.901e-2
0.729, -1.892e-2
0.728, -1.883e-2
0.727, -1.874e-2
0.726, -1.865e-2
0.725, -1.856e-2
0.724, -1.847e-2
0.723, -1.838e-2
0.722, -1.829e-2
0.721, -1.821e-2
0.720, -1.812e-2
0.719, -1.803e-2
0.718, -1.795e-2
0.717, -1.786e-2
0.716, -1.777e-2
0.715, -1.769e-2
0.714, -1.760e-2
0.713, -1.752e-2
0.712, -1.744e-2
0.711, -1.735e-2
0.710, -1.727e-2
0.709, -1.719e-2
0.708, -1.711e-2
0.707, -1.703e-2
0.706, -1.695e-2
0.705, -1.687e-2
0.704, -1.678e-2
0.703, -1.670e-2
0.702, -1.662e-2
0.701, -1.654e-2
0.700, -1.646e-2
0.699, -1.638e-2
0.698, -1.631e-2
0.697, -1.623e-2
0.696, -1.615e-2
0.695, -1.607e-2
0.694, -1.599e-2
0.693, -1.592e-2
0.692, -1.584e-2
0.691, -1.576e-2
0.690, -1.569e-2
0.689, -1.561e-2
0.688, -1.554e-2
0.687, -1.546e-2
0.686, -1.539e-2
0.685, -1.531e-2
0.684, -1.523e-2
0.683, -1.516e-2
0.682, -1.509e-2
0.681, -1.501e-2
0.680, -1.494e-2
0.679, -1.486e-2
0.678, -1.479e-2
0.677, -1.472e-2
0.676, -1.465e-2
0.675, -1.457e-2
0.674, -1.450e-2
0.673, -1.443e-2
0.672, -1.436e-2
0.671, -1.429e-2
0.670, -1.422e-2
0.669, -1.415e-2
0.668, -1.408e-2
0.667, -1.401e-2
0.666, -1.394e-2
0.665, -1.387e-2
0.664, -1.380e-2
0.663, -1.373e-2
0.662, -1.366e-2
0.661, -1.359e-2
0.660, -1.352e-2
0.659, -1.346e-2
0.658, -1.339e-2
0.657, -1.333e-2
0.656, -1.326e-2
0.655, -1.319e-2
0.654, -1.312e-2
0.653, -1.306e-2
0.652, -1.299e-2
0.651, -1.293e-2
0.650, -1.286e-2
0.649, -1.279e-2
0.648, -1.273e-2
0.647, -1.266e-2
0.646, -1.259e-2
0.645, -1.253e-2
0.644, -1.247e-2
0.643, -1.240e-2
0.642, -1.234e-2
0.641, -1.227e-2
0.640, -1.221e-2
0.639, -1.214e-2
0.638, -1.208e-2
0.637, -1.202e-2
0.636, -1.195e-2
0.635, -1.189e-2
0.634, -1.183e-2
0.633, -1.176e-2
0.632, -1.170e-2
0.631, -1.164e-2
0.630, -1.157e-2
0.629, -1.151e-2
0.628, -1.145e-2
0.627, -1.139e-2
0.626, -1.133e-2
0.625, -1.126e-2
0.624, -1.120e-2
0.623, -1.114e-2
0.622, -1.108e-2
0.621, -1.102e-2
0.620, -1.096e-2
0.619, -1.090e-2
0.618, -1.084e-2
0.617, -1.078e-2
0.616, -1.072e-2
0.615, -1.066e-2
0.614, -1.059e-2
0.613, -1.054e-2
0.612, -1.048e-2
0.611, -1.042e-2
0.610, -1.036e-2
0.609, -1.030e-2
0.608, -1.024e-2
0.607, -1.018e-2
0.606, -1.012e-2
0.605, -1.006e-2
0.604, -1.000e-2
0.603, -9.947e-3
0.602, -9.888e-3
0.601, -9.830e-3
0.600, -9.771e-3
0.599, -9.714e-3
0.598, -9.655e-3
0.597, -9.598e-3
0.596, -9.540e-3
0.595, -9.483e-3
0.594, -9.426e-3
0.593, -9.372e-3
0.592, -9.314e-3
0.591, -9.257e-3
0.590, -9.201e-3
0.589, -9.144e-3
0.588, -9.086e-3
0.587, -9.030e-3
0.586, -8.974e-3
0.585, -8.918e-3
0.584, -8.861e-3
0.583, -8.804e-3
0.582, -8.750e-3
0.581, -8.694e-3
0.580, -8.638e-3
0.579, -8.583e-3
0.578, -8.528e-3
0.577, -8.475e-3
0.576, -8.417e-3
0.575, -8.359e-3
0.574, -8.305e-3
0.573, -8.251e-3
0.572, -8.194e-3
0.571, -8.139e-3
0.570, -8.083e-3
0.569, -8.029e-3
0.568, -7.974e-3
0.567, -7.919e-3
0.566, -7.866e-3
0.565, -7.812e-3
0.564, -7.757e-3
0.563, -7.698e-3
0.562, -7.643e-3
0.561, -7.591e-3
0.560, -7.537e-3
0.559, -7.482e-3
0.558, -7.428e-3
0.557, -7.372e-3
0.556, -7.317e-3
0.555, -7.263e-3
0.554, -7.211e-3
0.553, -7.155e-3
0.552, -7.101e-3
0.551, -7.048e-3
0.550, -6.994e-3
0.549, -6.940e-3
0.548, -6.886e-3
0.547, -6.832e-3
0.546, -6.778e-3
0.545, -6.725e-3
0.544, -6.671e-3
0.543, -6.617e-3
0.542, -6.566e-3
0.541, -6.513e-3
0.540, -6.458e-3
0.539, -6.404e-3
0.538, -6.350e-3
0.537, -6.297e-3
0.536, -6.244e-3
0.535, -6.190e-3
0.534, -6.139e-3
0.533, -6.085e-3
0.532, -6.032e-3
0.531, -5.979e-3
0.530, -5.925e-3
0.529, -5.873e-3
0.528, -5.820e-3
0.527, -5.768e-3
0.526, -5.716e-3
0.525, -5.662e-3
0.524, -5.610e-3
0.523, -5.558e-3
0.522, -5.507e-3
0.521, -5.455e-3
0.520, -5.402e-3
0.519, -5.352e-3
0.518, -5.299e-3
0.517, -5.246e-3
0.516, -5.194e-3
0.515, -5.142e-3
0.514, -5.091e-3
0.513, -5.038e-3
0.512, -4.984e-3
0.511, -4.929e-3
0.510, -4.878e-3
0.509, -4.825e-3
0.508, -4.773e-3
0.507, -4.721e-3
0.506, -4.668e-3
0.505, -4.616e-3
0.504, -4.563e-3
0.503, -4.511e-3
0.502, -4.460e-3
0.501, -4.409e-3
0.500, -4.358e-3
0.499, -4.306e-3
0.498, -4.253e-3
0.497, -4.201e-3
0.496, -4.149e-3
0.495, -4.097e-3
0.494, -4.046e-3
0.493, -3.995e-3
0.492, -3.944e-3
0.491, -3.891e-3
0.490, -3.839e-3
0.489, -3.789e-3
0.488, -3.738e-3
0.487, -3.688e-3
0.486, -3.638e-3
0.485, -3.589e-3
0.484, -3.539e-3
0.483, -3.488e-3
0.482, -3.436e-3
0.481, -3.386e-3
0.480, -3.335e-3
0.479, -3.283e-3
0.478, -3.233e-3
0.477, -3.182e-3
0.476, -3.132e-3
0.475, -3.084e-3
0.474, -3.032e-3
0.473, -2.980e-3
0.472, -2.931e-3
0.471, -2.883e-3
0.470, -2.834e-3
0.469, -2.783e-3
0.468, -2.733e-3
0.467, -2.682e-3
0.466, -2.632e-3
0.465, -2.584e-3
0.464, -2.534e-3
0.463, -2.483e-3
0.462, -2.435e-3
0.461, -2.385e-3
0.460, -2.335e-3
0.459, -2.285e-3
0.458, -2.236e-3
0.457, -2.187e-3
0.456, -2.138e-3
0.455, -2.090e-3
0.454, -2.041e-3
0.453, -1.993e-3
0.452, -1.944e-3
0.451, -1.896e-3
0.450, -1.847e-3
0.449, -1.800e-3
0.448, -1.752e-3
0.447, -1.704e-3
0.446, -1.658e-3
0.445, -1.609e-3
0.444, -1.564e-3
0.443, -1.519e-3
0.442, -1.473e-3
0.441, -1.427e-3
0.440, -1.380e-3
0.439, -1.333e-3
0.438, -1.287e-3
0.437, -1.240e-3
0.436, -1.195e-3
0.435, -1.148e-3
0.434, -1.102e-3
0.433, -1.058e-3
0.432, -1.013e-3
0.431, -9.689e-4
0.430, -9.237e-4
0.429, -8.799e-4
0.428, -8.330e-4
0.427, -7.910e-4
0.426, -7.477e-4
0.425, -7.051e-4
0.424, -6.624e-4
0.423, -6.188e-4
0.422, -5.768e-4
0.421, -5.348e-4
0.420, -4.918e-4
0.419, -4.491e-4
0.418, -4.080e-4
0.417, -3.675e-4
0.416, -3.276e-4
0.415, -2.859e-4
0.414, -2.468e-4
0.413, -2.074e-4
0.412, -1.688e-4
0.411, -1.305e-4
0.410, -8.954e-5
0.409, -4.634e-5
0.408, -5.498e-6
0.407, 3.338e-5
0.406, 7.089e-5
0.405, 1.074e-4
0.404, 1.432e-4
0.403, 1.810e-4
0.402, 2.195e-4
0.401, 2.565e-4
0.400, 2.933e-4
0.399, 3.320e-4
0.398, 3.701e-4
0.397, 4.093e-4
0.396, 4.488e-4
0.395, 4.865e-4
0.394, 5.235e-4
0.393, 5.612e-4
0.392, 5.990e-4
0.391, 6.367e-4
0.390, 6.764e-4
0.389, 7.149e-4
0.388, 7.514e-4
0.387, 7.892e-4
0.386, 8.287e-4
0.385, 8.644e-4
0.384, 9.032e-4
0.383, 9.387e-4
0.382, 9.761e-4
0.381, 1.014e-3
0.380, 1.050e-3
0.379, 1.086e-3
0.378, 1.124e-3
0.377, 1.161e-3
0.376, 1.199e-3
0.375, 1.235e-3
0.374, 1.269e-3
0.373, 1.306e-3
0.372, 1.342e-3
0.371, 1.377e-3
0.370, 1.412e-3
0.369, 1.446e-3
0.368, 1.482e-3
0.367, 1.519e-3
0.366, 1.556e-3
0.365, 1.593e-3
0.364, 1.628e-3
0.363, 1.664e-3
0.362, 1.700e-3
0.361, 1.735e-3
0.360, 1.770e-3
0.359, 1.804e-3
0.358, 1.842e-3
0.357, 1.876e-3
0.356, 1.911e-3
0.355, 1.947e-3
0.354, 1.982e-3
0.353, 2.017e-3
0.352, 2.052e-3
0.351, 2.086e-3
0.350, 2.120e-3
0.349, 2.155e-3
0.348, 2.189e-3
0.347, 2.224e-3
0.346, 2.258e-3
0.345, 2.292e-3
0.344, 2.325e-3
0.343, 2.359e-3
0.342, 2.391e-3
0.341, 2.426e-3
0.340, 2.462e-3
0.339, 2.496e-3
0.338, 2.531e-3
0.337, 2.566e-3
0.336, 2.601e-3
0.335, 2.637e-3
0.334, 2.670e-3
0.333, 2.706e-3
0.332, 2.740e-3
0.331, 2.776e-3
0.330, 2.810e-3
0.329, 2.844e-3
0.328, 2.879e-3
0.327, 2.914e-3
0.326, 2.950e-3
0.325, 2.985e-3
0.324, 3.020e-3
0.323, 3.055e-3
0.322, 3.089e-3
0.321, 3.123e-3
0.320, 3.158e-3
0.319, 3.192e-3
0.318, 3.226e-3
0.317, 3.261e-3
0.316, 3.294e-3
0.315, 3.328e-3
0.314, 3.364e-3
0.313, 3.399e-3
0.312, 3.435e-3
0.311, 3.471e-3
0.310, 3.502e-3
0.309, 3.537e-3
0.308, 3.570e-3
0.307, 3.607e-3
0.306, 3.642e-3
0.305, 3.675e-3
0.304, 3.710e-3
0.303, 3.744e-3
0.302, 3.777e-3
0.301, 3.812e-3
0.300, 3.847e-3
0.299, 3.881e-3
0.298, 3.917e-3
0.297, 3.950e-3
0.296, 3.984e-3
0.295, 4.016e-3
0.294, 4.051e-3
0.293, 4.086e-3
0.292, 4.120e-3
0.291, 4.154e-3
0.290, 4.189e-3
0.289, 4.224e-3
0.288, 4.260e-3
0.287, 4.295e-3
0.286, 4.326e-3
0.285, 4.360e-3
0.284, 4.393e-3
0.283, 4.427e-3
0.282, 4.460e-3
0.281, 4.494e-3
0.280, 4.529e-3
0.279, 4.562e-3
0.278, 4.596e-3
0.277, 4.631e-3
0.276, 4.665e-3
0.275, 4.698e-3
0.274, 4.732e-3
0.273, 4.764e-3
0.272, 4.797e-3
0.271, 4.828e-3
0.270, 4.861e-3
0.269, 4.897e-3
0.268, 4.932e-3
0.267, 4.964e-3
0.266, 4.997e-3
0.265, 5.029e-3
0.264, 5.062e-3
0.263, 5.096e-3
0.262, 5.129e-3
0.261, 5.162e-3
0.260, 5.194e-3
0.259, 5.226e-3
0.258, 5.258e-3
0.257, 5.289e-3
0.256, 5.324e-3
0.255, 5.359e-3
0.254, 5.392e-3
0.253, 5.426e-3
0.252, 5.457e-3
0.251, 5.488e-3
0.250, 5.521e-3
0.249, 5.554e-3
0.248, 5.588e-3
0.247, 5.619e-3
0.246, 5.651e-3
0.245, 5.682e-3
0.244, 5.711e-3
0.243, 5.742e-3
0.242, 5.773e-3
0.241, 5.806e-3
0.240, 5.839e-3
0.239, 5.872e-3
0.238, 5.903e-3
0.237, 5.934e-3
0.236, 5.965e-3
0.235, 5.996e-3
0.234, 6.028e-3
0.233, 6.059e-3
0.232, 6.089e-3
0.231, 6.122e-3
0.230, 6.152e-3
0.229, 6.183e-3
0.228, 6.215e-3
0.227, 6.245e-3
0.226, 6.276e-3
0.225, 6.305e-3
0.224, 6.334e-3
0.223, 6.365e-3
0.222, 6.395e-3
0.221, 6.425e-3
0.220, 6.455e-3
0.219, 6.485e-3
0.218, 6.515e-3
0.217, 6.545e-3
0.216, 6.576e-3
0.215, 6.606e-3
0.214, 6.635e-3
0.213, 6.665e-3
0.212, 6.693e-3
0.211, 6.723e-3
0.210, 6.753e-3
0.209, 6.781e-3
0.208, 6.809e-3
0.207, 6.840e-3
0.206, 6.869e-3
0.205, 6.901e-3
0.204, 6.929e-3
0.203, 6.956e-3
0.202, 6.984e-3
0.201, 7.012e-3
0.200, 7.040e-3
0.199, 7.070e-3
0.198, 7.099e-3
0.197, 7.127e-3
0.196, 7.154e-3
0.195, 7.181e-3
0.194, 7.209e-3
0.193, 7.236e-3
0.192, 7.265e-3
0.191, 7.295e-3
0.190, 7.322e-3
0.189, 7.352e-3
0.188, 7.379e-3
0.187, 7.407e-3
0.186, 7.434e-3
0.185, 7.461e-3
0.184, 7.488e-3
0.183, 7.516e-3
0.182, 7.544e-3
0.181, 7.572e-3
0.180, 7.598e-3
0.179, 7.626e-3
0.178, 7.654e-3
0.177, 7.681e-3
0.176, 7.710e-3
0.175, 7.737e-3
0.174, 7.762e-3
0.173, 7.791e-3
0.172, 7.819e-3
0.171, 7.845e-3
0.170, 7.872e-3
0.169, 7.897e-3
0.168, 7.924e-3
0.167, 7.952e-3
0.166, 7.978e-3
0.165, 8.007e-3
0.164, 8.034e-3
0.163, 8.062e-3
0.162, 8.089e-3
0.161, 8.114e-3
0.160, 8.142e-3
0.159, 8.169e-3
0.158, 8.196e-3
0.157, 8.223e-3
0.156, 8.250e-3
0.155, 8.276e-3
0.154, 8.305e-3
0.153, 8.333e-3
0.152, 8.360e-3
0.151, 8.388e-3
0.150, 8.415e-3
0.149, 8.443e-3
0.148, 8.468e-3
0.147, 8.496e-3
0.146, 8.524e-3
0.145, 8.551e-3
0.144, 8.578e-3
0.143, 8.605e-3
0.142, 8.631e-3
0.141, 8.658e-3
0.140, 8.685e-3
0.139, 8.710e-3
0.138, 8.737e-3
0.137, 8.763e-3
0.136, 8.791e-3
0.135, 8.818e-3
0.134, 8.847e-3
0.133, 8.873e-3
0.132, 8.899e-3
0.131, 8.925e-3
0.130, 8.950e-3
0.129, 8.977e-3
0.128, 9.005e-3
0.127, 9.031e-3
0.126, 9.057e-3
0.125, 9.083e-3
0.124, 9.109e-3
0.123, 9.135e-3
0.122, 9.160e-3
0.121, 9.186e-3
0.120, 9.213e-3
0.119, 9.242e-3
0.118, 9.266e-3
0.117, 9.294e-3
0.116, 9.320e-3
0.115, 9.347e-3
0.114, 9.373e-3
0.113, 9.398e-3
0.112, 9.424e-3
0.111, 9.451e-3
0.110, 9.476e-3
0.109, 9.503e-3
0.108, 9.530e-3
0.107, 9.555e-3
0.106, 9.582e-3
0.105, 9.607e-3
0.104, 9.634e-3
0.103, 9.659e-3
0.102, 9.687e-3
0.101, 9.714e-3
0.100, 9.738e-3
0.099, 9.765e-3
0.098, 9.790e-3
0.097, 9.815e-3
0.096, 9.841e-3
0.095, 9.867e-3
0.094, 9.892e-3
0.093, 9.918e-3
0.092, 9.943e-3
0.091, 9.968e-3
0.090, 9.993e-3
0.089, 1.002e-2
0.088, 1.004e-2
0.087, 1.007e-2
0.086, 1.010e-2
0.085, 1.012e-2
0.084, 1.015e-2
0.083, 1.017e-2
0.082, 1.020e-2
0.081, 1.022e-2
0.080, 1.025e-2
0.079, 1.027e-2
0.078, 1.029e-2
0.077, 1.032e-2
0.076, 1.034e-2
0.075, 1.037e-2
0.074, 1.039e-2
0.073, 1.042e-2
0.072, 1.044e-2
0.071, 1.047e-2
0.070, 1.049e-2
0.069, 1.052e-2
0.068, 1.055e-2
0.067, 1.057e-2
0.066, 1.059e-2
0.065, 1.062e-2
0.064, 1.064e-2
0.063, 1.067e-2
0.062, 1.069e-2
0.061, 1.072e-2
0.060, 1.074e-2
0.059, 1.077e-2
0.058, 1.079e-2
0.057, 1.082e-2
0.056, 1.084e-2
0.055, 1.087e-2
0.054, 1.089e-2
0.053, 1.092e-2
0.052, 1.094e-2
0.051, 1.097e-2
0.050, 1.099e-2
0.049, 1.102e-2
0.048, 1.104e-2
0.047, 1.107e-2
0.046, 1.109e-2
0.045, 1.112e-2
0.044, 1.114e-2
0.043, 1.116e-2
0.042, 1.119e-2
0.041, 1.121e-2
0.040, 1.124e-2
0.039, 1.126e-2
0.038, 1.128e-2
0.037, 1.131e-2
0.036, 1.133e-2
0.035, 1.136e-2
0.034, 1.138e-2
0.033, 1.140e-2
0.032, 1.143e-2
0.031, 1.145e-2
0.030, 1.148e-2
0.029, 1.150e-2
0.028, 1.153e-2
0.027, 1.155e-2
0.026, 1.157e-2
0.025, 1.160e-2
0.024, 1.162e-2
0.023, 1.165e-2
0.022, 1.167e-2
0.021, 1.169e-2
0.020, 1.172e-2
0.019, 1.174e-2
0.018, 1.177e-2
0.017, 1.179e-2
0.016, 1.181e-2
0.015, 1.184e-2
0.014, 1.186e-2
0.013, 1.189e-2
0.012, 1.191e-2
0.011, 1.193e-2
0.010, 1.196e-2
0.009, 1.198e-2
0.008, 1.200e-2
0.007, 1.203e-2
0.006, 1.205e-2
0.005, 1.207e-2
0.004, 1.209e-2
0.003, 1.211e-2
0.002, 1.213e-2
0.001, 1.215e-2
0.000, 1.218e-2
-0.001, 1.220e-2
-0.002, 1.222e-2
-0.003, 1.225e-2
-0.004, 1.227e-2
-0.005, 1.229e-2
-0.006, 1.232e-2
-0.007, 1.234e-2
-0.008, 1.236e-2
-0.009, 1.239e-2
-0.010, 1.241e-2
-0.011, 1.243e-2
-0.012, 1.246e-2
-0.013, 1.248e-2
-0.014, 1.250e-2
-0.015, 1.253e-2
-0.016, 1.255e-2
-0.017, 1.257e-2
-0.018, 1.259e-2
-0.019, 1.262e-2
-0.020, 1.264e-2
-0.021, 1.266e-2
-0.022, 1.269e-2
-0.023, 1.271e-2
-0.024, 1.273e-2
-0.025, 1.276e-2
-0.026, 1.278e-2
-0.027, 1.280e-2
-0.028, 1.282e-2
-0.029, 1.284e-2
-0.030, 1.287e-2
-0.031, 1.289e-2
-0.032, 1.291e-2
-0.033, 1.293e-2
-0.034, 1.296e-2
-0.035, 1.298e-2
-0.036, 1.300e-2
-0.037, 1.302e-2
-0.038, 1.305e-2
-0.039, 1.307e-2
-0.040, 1.309e-2
-0.041, 1.311e-2
-0.042, 1.314e-2
-0.043, 1.316e-2
-0.044, 1.318e-2
-0.045, 1.320e-2
-0.046, 1.323e-2
-0.047, 1.325e-2
-0.048, 1.327e-2
-0.049, 1.329e-2
-0.050, 1.331e-2
-0.051, 1.334e-2
-0.052, 1.336e-2
-0.053, 1.338e-2
-0.054, 1.341e-2
-0.055, 1.343e-2
-0.056, 1.345e-2
-0.057, 1.347e-2
-0.058, 1.349e-2
-0.059, 1.352e-2
-0.060, 1.354e-2
-0.061, 1.356e-2
-0.062, 1.358e-2
-0.063, 1.360e-2
-0.064, 1.362e-2
-0.065, 1.365e-2
-0.066, 1.367e-2
-0.067, 1.369e-2
-0.068, 1.371e-2
-0.069, 1.373e-2
-0.070, 1.375e-2
-0.071, 1.378e-2
-0.072, 1.380e-2
-0.073, 1.382e-2
-0.074, 1.384e-2
-0.075, 1.386e-2
-0.076, 1.388e-2
-0.077, 1.391e-2
-0.078, 1.393e-2
-0.079, 1.395e-2
-0.080, 1.397e-2
-0.081, 1.399e-2
-0.082, 1.401e-2
-0.083, 1.404e-2
-0.084, 1.406e-2
-0.085, 1.408e-2
-0.086, 1.410e-2
-0.087, 1.412e-2
-0.088, 1.414e-2
-0.089, 1.416e-2
-0.090, 1.418e-2
-0.091, 1.420e-2
-0.092, 1.422e-2
-0.093, 1.424e-2
-0.094, 1.426e-2
-0.095, 1.428e-2
-0.096, 1.431e-2
-0.097, 1.433e-2
-0.098, 1.435e-2
-0.099, 1.437e-2
-0.100, 1.439e-2
-0.101, 1.441e-2
-0.102, 1.443e-2
-0.103, 1.446e-2
-0.104, 1.448e-2
-0.105, 1.450e-2
-0.106, 1.452e-2
-0.107, 1.454e-2
-0.108, 1.456e-2
-0.109, 1.458e-2
-0.110, 1.460e-2
-0.111, 1.462e-2
-0.112, 1.464e-2
-0.113, 1.467e-2
-0.114, 1.469e-2
-0.115, 1.471e-2
-0.116, 1.473e-2
-0.117, 1.475e-2
-0.118, 1.477e-2
-0.119, 1.479e-2
-0.120, 1.481e-2
-0.121, 1.483e-2
-0.122, 1.485e-2
-0.123, 1.487e-2
-0.124, 1.489e-2
-0.125, 1.491e-2
-0.126, 1.493e-2
-0.127, 1.495e-2
-0.128, 1.497e-2
-0.129, 1.499e-2
-0.130, 1.501e-2
-0.131, 1.503e-2
-0.132, 1.505e-2
-0.133, 1.507e-2
-0.134, 1.510e-2
-0.135, 1.512e-2
-0.136, 1.514e-2
-0.137, 1.516e-2
-0.138, 1.518e-2
-0.139, 1.520e-2
-0.140, 1.522e-2
-0.141, 1.524e-2
-0.142, 1.526e-2
-0.143, 1.528e-2
-0.144, 1.530e-2
-0.145, 1.532e-2
-0.146, 1.534e-2
-0.147, 1.536e-2
-0.148, 1.538e-2
-0.149, 1.540e-2
-0.150, 1.542e-2
-0.151, 1.544e-2
-0.152, 1.546e-2
-0.153, 1.548e-2
-0.154, 1.550e-2
-0.155, 1.552e-2
-0.156, 1.554e-2
-0.157, 1.556e-2
-0.158, 1.558e-2
-0.159, 1.560e-2
-0.160, 1.562e-2
-0.161, 1.564e-2
-0.162, 1.566e-2
-0.163, 1.568e-2
-0.164, 1.570e-2
-0.165, 1.572e-2
-0.166, 1.574e-2
-0.167, 1.576e-2
-0.168, 1.578e-2
-0.169, 1.580e-2
-0.170, 1.581e-2
-0.171, 1.583e-2
-0.172, 1.585e-2
-0.173, 1.587e-2
-0.174, 1.589e-2
-0.175, 1.591e-2
-0.176, 1.593e-2
-0.177, 1.595e-2
-0.178, 1.597e-2
-0.179, 1.599e-2
-0.180, 1.601e-2
-0.181, 1.603e-2
-0.182, 1.604e-2
-0.183, 1.606e-2
-0.184, 1.608e-2
-0.185, 1.610e-2
-0.186, 1.612e-2
-0.187, 1.615e-2
-0.188, 1.617e-2
-0.189, 1.618e-2
-0.190, 1.620e-2
-0.191, 1.622e-2
-0.192, 1.624e-2
-0.193, 1.626e-2
-0.194, 1.628e-2
-0.195, 1.630e-2
-0.196, 1.632e-2
-0.197, 1.633e-2
-0.198, 1.635e-2
-0.199, 1.637e-2
-0.200, 1.639e-2
-0.201, 1.641e-2
-0.202, 1.643e-2
-0.203, 1.645e-2
-0.204, 1.647e-2
-0.205, 1.649e-2
-0.206, 1.651e-2
-0.207, 1.653e-2
-0.208, 1.654e-2
-0.209, 1.656e-2
-0.210, 1.658e-2
-0.211, 1.660e-2
-0.212, 1.662e-2
-0.213, 1.664e-2
-0.214, 1.666e-2
-0.215, 1.667e-2
-0.216, 1.669e-2
-0.217, 1.671e-2
-0.218, 1.673e-2
-0.219, 1.675e-2
-0.220, 1.677e-2
-0.221, 1.678e-2
-0.222, 1.680e-2
-0.223, 1.682e-2
-0.224, 1.684e-2
-0.225, 1.686e-2
-0.226, 1.688e-2
-0.227, 1.690e-2
-0.228, 1.691e-2
-0.229, 1.693e-2
-0.230, 1.695e-2
-0.231, 1.697e-2
-0.232, 1.699e-2
-0.233, 1.700e-2
-0.234, 1.702e-2
-0.235, 1.704e-2
-0.236, 1.706e-2
-0.237, 1.708e-2
-0.238, 1.710e-2
-0.239, 1.711e-2
-0.240, 1.713e-2
-0.241, 1.715e-2
-0.242, 1.716e-2
-0.243, 1.718e-2
-0.244, 1.720e-2
-0.245, 1.722e-2
-0.246, 1.724e-2
-0.247, 1.725e-2
-0.248, 1.727e-2
-0.249, 1.729e-2
-0.250, 1.731e-2
-0.251, 1.733e-2
-0.252, 1.734e-2
-0.253, 1.736e-2
-0.254, 1.738e-2
-0.255, 1.740e-2
-0.256, 1.742e-2
-0.257, 1.743e-2
-0.258, 1.745e-2
-0.259, 1.747e-2
-0.260, 1.749e-2
-0.261, 1.750e-2
-0.262, 1.752e-2
-0.263, 1.754e-2
-0.264, 1.756e-2
-0.265, 1.757e-2
-0.266, 1.759e-2
-0.267, 1.761e-2
-0.268, 1.762e-2
-0.269, 1.764e-2
-0.270, 1.766e-2
-0.271, 1.768e-2
-0.272, 1.770e-2
-0.273, 1.771e-2
-0.274, 1.773e-2
-0.275, 1.775e-2
-0.276, 1.777e-2
-0.277, 1.778e-2
-0.278, 1.780e-2
-0.279, 1.782e-2
-0.280, 1.783e-2
-0.281, 1.785e-2
-0.282, 1.787e-2
-0.283, 1.788e-2
-0.284, 1.790e-2
-0.285, 1.792e-2
-0.286, 1.794e-2
-0.287, 1.795e-2
-0.288, 1.797e-2
-0.289, 1.799e-2
-0.290, 1.800e-2
-0.291, 1.802e-2
-0.292, 1.804e-2
-0.293, 1.805e-2
-0.294, 1.807e-2
-0.295, 1.809e-2
-0.296, 1.810e-2
-0.297, 1.812e-2
-0.298, 1.813e-2
-0.299, 1.815e-2
-0.300, 1.817e-2
-0.301, 1.818e-2
-0.302, 1.820e-2
-0.303, 1.822e-2
-0.304, 1.823e-2
-0.305, 1.825e-2
-0.306, 1.827e-2
-0.307, 1.829e-2
-0.308, 1.830e-2
-0.309, 1.832e-2
-0.310, 1.834e-2
-0.311, 1.835e-2
-0.312, 1.837e-2
-0.313, 1.839e-2
-0.314, 1.840e-2
-0.315, 1.842e-2
-0.316, 1.844e-2
-0.317, 1.845e-2
-0.318, 1.847e-2
-0.319, 1.849e-2
-0.320, 1.850e-2
-0.321, 1.852e-2
-0.322, 1.854e-2
-0.323, 1.855e-2
-0.324, 1.857e-2
-0.325, 1.858e-2
-0.326, 1.860e-2
-0.327, 1.862e-2
-0.328, 1.863e-2
-0.329, 1.865e-2
-0.330, 1.867e-2
-0.331, 1.869e-2
-0.332, 1.870e-2
-0.333, 1.872e-2
-0.334, 1.874e-2
-0.335, 1.875e-2
-0.336, 1.877e-2
-0.337, 1.878e-2
-0.338, 1.880e-2
-0.339, 1.882e-2
-0.340, 1.883e-2
-0.341, 1.885e-2
-0.342, 1.887e-2
-0.343, 1.888e-2
-0.344, 1.890e-2
-0.345, 1.891e-2
-0.346, 1.893e-2
-0.347, 1.895e-2
-0.348, 1.896e-2
-0.349, 1.898e-2
-0.350, 1.899e-2
-0.351, 1.901e-2
-0.352, 1.903e-2
-0.353, 1.904e-2
-0.354, 1.906e-2
-0.355, 1.907e-2
-0.356, 1.909e-2
-0.357, 1.911e-2
-0.358, 1.912e-2
-0.359, 1.914e-2
-0.360, 1.916e-2
-0.361, 1.918e-2
-0.362, 1.919e-2
-0.363, 1.921e-2
-0.364, 1.922e-2
-0.365, 1.924e-2
-0.366, 1.925e-2
-0.367, 1.927e-2
-0.368, 1.929e-2
-0.369, 1.930e-2
-0.370, 1.932e-2
-0.371, 1.933e-2
-0.372, 1.935e-2
-0.373, 1.937e-2
-0.374, 1.938e-2
-0.375, 1.940e-2
-0.376, 1.941e-2
-0.377, 1.943e-2
-0.378, 1.945e-2
-0.379, 1.946e-2
-0.380, 1.948e-2
-0.381, 1.949e-2
-0.382, 1.951e-2
-0.383, 1.952e-2
-0.384, 1.954e-2
-0.385, 1.956e-2
-0.386, 1.957e-2
-0.387, 1.959e-2
-0.388, 1.960e-2
-0.389, 1.962e-2
-0.390, 1.964e-2
-0.391, 1.965e-2
-0.392, 1.967e-2
-0.393, 1.969e-2
-0.394, 1.970e-2
-0.395, 1.972e-2
-0.396, 1.973e-2
-0.397, 1.975e-2
-0.398, 1.976e-2
-0.399, 1.978e-2
-0.400, 1.980e-2
-0.401, 1.981e-2
-0.402, 1.983e-2
-0.403, 1.984e-2
-0.404, 1.986e-2
-0.405, 1.987e-2
-0.406, 1.989e-2
-0.407, 1.991e-2
-0.408, 1.992e-2
-0.409, 1.994e-2
-0.410, 1.996e-2
-0.411, 1.998e-2
-0.412, 1.999e-2
-0.413, 2.001e-2
-0.414, 2.002e-2
-0.415, 2.004e-2
-0.416, 2.005e-2
-0.417, 2.007e-2
-0.418, 2.008e-2
-0.419, 2.010e-2
-0.420, 2.012e-2
-0.421, 2.013e-2
-0.422, 2.015e-2
-0.423, 2.016e-2
-0.424, 2.018e-2
-0.425, 2.019e-2
-0.426, 2.021e-2
-0.427, 2.022e-2
-0.428, 2.024e-2
-0.429, 2.025e-2
-0.430, 2.027e-2
-0.431, 2.029e-2
-0.432, 2.030e-2
-0.433, 2.032e-2
-0.434, 2.033e-2
-0.435, 2.035e-2
-0.436, 2.037e-2
-0.437, 2.038e-2
-0.438, 2.040e-2
-0.439, 2.041e-2
-0.440, 2.043e-2
-0.441, 2.044e-2
-0.442, 2.046e-2
-0.443, 2.048e-2
-0.444, 2.049e-2
-0.445, 2.051e-2
-0.446, 2.052e-2
-0.447, 2.054e-2
-0.448, 2.055e-2
-0.449, 2.057e-2
-0.450, 2.058e-2
-0.451, 2.060e-2
-0.452, 2.061e-2
-0.453, 2.063e-2
-0.454, 2.064e-2
-0.455, 2.066e-2
-0.456, 2.068e-2
-0.457, 2.069e-2
-0.458, 2.071e-2
-0.459, 2.072e-2
-0.460, 2.074e-2
-0.461, 2.076e-2
-0.462, 2.077e-2
-0.463, 2.079e-2
-0.464, 2.080e-2
-0.465, 2.082e-2
-0.466, 2.083e-2
-0.467, 2.085e-2
-0.468, 2.086e-2
-0.469, 2.088e-2
-0.470, 2.089e-2
-0.471, 2.091e-2
-0.472, 2.093e-2
-0.473, 2.094e-2
-0.474, 2.096e-2
-0.475, 2.097e-2
-0.476, 2.099e-2
-0.477, 2.100e-2
-0.478, 2.102e-2
-0.479, 2.103e-2
-0.480, 2.105e-2
-0.481, 2.107e-2
-0.482, 2.108e-2
-0.483, 2.110e-2
-0.484, 2.111e-2
-0.485, 2.113e-2
-0.486, 2.115e-2
-0.487, 2.116e-2
-0.488, 2.118e-2
-0.489, 2.119e-2
-0.490, 2.121e-2
-0.491, 2.122e-2
-0.492, 2.124e-2
-0.493, 2.125e-2
-0.494, 2.127e-2
-0.495, 2.128e-2
-0.496, 2.130e-2
-0.497, 2.131e-2
-0.498, 2.133e-2
-0.499, 2.135e-2
-0.500, 2.139e-2
-0.501, 2.140e-2
-0.502, 2.142e-2
-0.503, 2.143e-2
-0.504, 2.145e-2
-0.505, 2.147e-2
-0.506, 2.148e-2
-0.507, 2.149e-2
-0.508, 2.151e-2
-0.509, 2.152e-2
-0.510, 2.154e-2
-0.511, 2.155e-2
-0.512, 2.157e-2
-0.513, 2.159e-2
-0.514, 2.160e-2
-0.515, 2.162e-2
-0.516, 2.163e-2
-0.517, 2.164e-2
-0.518, 2.166e-2
-0.519, 2.168e-2
-0.520, 2.169e-2
-0.521, 2.171e-2
-0.522, 2.172e-2
-0.523, 2.174e-2
-0.524, 2.175e-2
-0.525, 2.177e-2
-0.526, 2.178e-2
-0.527, 2.180e-2
-0.528, 2.182e-2
-0.529, 2.183e-2
-0.530, 2.184e-2
-0.531, 2.186e-2
-0.532, 2.188e-2
-0.533, 2.189e-2
-0.534, 2.190e-2
-0.535, 2.192e-2
-0.536, 2.193e-2
-0.537, 2.195e-2
-0.538, 2.197e-2
-0.539, 2.199e-2
-0.540, 2.200e-2
-0.541, 2.201e-2
-0.542, 2.202e-2
-0.543, 2.204e-2
-0.544, 2.205e-2
-0.545, 2.207e-2
-0.546, 2.208e-2
-0.547, 2.210e-2
-0.548, 2.212e-2
-0.549, 2.213e-2
-0.550, 2.215e-2
-0.551, 2.218e-2
-0.552, 2.220e-2
-0.553, 2.223e-2
-0.554, 2.224e-2
-0.555, 2.226e-2
-0.556, 2.227e-2
-0.557, 2.228e-2
-0.558, 2.230e-2
-0.559, 2.233e-2
-0.560, 2.237e-2
-0.561, 2.239e-2
-0.562, 2.241e-2
-0.563, 2.242e-2
-0.564, 2.244e-2
-0.565, 2.246e-2
-0.566, 2.247e-2
-0.567, 2.248e-2
-0.568, 2.250e-2
-0.569, 2.252e-2
-0.570, 2.254e-2
-0.571, 2.255e-2
-0.572, 2.256e-2
-0.573, 2.258e-2
-0.574, 2.260e-2
-0.575, 2.261e-2
-0.576, 2.263e-2
-0.577, 2.264e-2
-0.578, 2.266e-2
-0.579, 2.267e-2
-0.580, 2.268e-2
-0.581, 2.270e-2
-0.582, 2.271e-2
-0.583, 2.273e-2
-0.584, 2.276e-2
-0.585, 2.278e-2
-0.586, 2.280e-2
-0.587, 2.285e-2
-0.588, 2.287e-2
-0.589, 2.288e-2
-0.590, 2.289e-2
-0.591, 2.291e-2
-0.592, 2.292e-2
-0.593, 2.293e-2
-0.594, 2.294e-2
-0.595, 2.296e-2
-0.596, 2.297e-2
-0.597, 2.298e-2
-0.598, 2.299e-2
-0.599, 2.300e-2
-0.600, 2.302e-2
-0.601, 2.303e-2
-0.602, 2.305e-2
-0.603, 2.306e-2
-0.604, 2.307e-2
-0.605, 2.309e-2
-0.606, 2.310e-2
-0.607, 2.312e-2
-0.608, 2.314e-2
-0.609, 2.316e-2
-0.610, 2.319e-2
-0.611, 2.321e-2
-0.612, 2.324e-2
-0.613, 2.327e-2
-0.614, 2.328e-2
-0.615, 2.330e-2
-0.616, 2.331e-2
-0.617, 2.333e-2
-0.618, 2.334e-2
-0.619, 2.335e-2
-0.620, 2.337e-2
-0.621, 2.338e-2
-0.622, 2.340e-2
-0.623, 2.341e-2
-0.624, 2.344e-2
-0.625, 2.346e-2
-0.626, 2.349e-2
-0.627, 2.350e-2
-0.628, 2.352e-2
-0.629, 2.354e-2
-0.630, 2.355e-2
-0.631, 2.356e-2
-0.632, 2.357e-2
-0.633, 2.359e-2
-0.634, 2.360e-2
-0.635, 2.362e-2
-0.636, 2.364e-2
-0.637, 2.368e-2
-0.638, 2.372e-2
-0.639, 2.373e-2
-0.640, 2.374e-2
-0.641, 2.376e-2
-0.642, 2.377e-2
-0.643, 2.378e-2
-0.644, 2.380e-2
-0.645, 2.381e-2
-0.646, 2.382e-2
-0.647, 2.383e-2
-0.648, 2.386e-2
-0.649, 2.388e-2
-0.650, 2.390e-2
-0.651, 2.392e-2
-0.652, 2.395e-2
-0.653, 2.396e-2
-0.654, 2.397e-2
-0.655, 2.398e-2
-0.656, 2.400e-2
-0.657, 2.401e-2
-0.658, 2.403e-2
-0.659, 2.406e-2
-0.660, 2.409e-2
-0.661, 2.411e-2
-0.662, 2.412e-2
-0.663, 2.413e-2
-0.664, 2.414e-2
-0.665, 2.415e-2
-0.666, 2.421e-2
-0.667, 2.424e-2
-0.668, 2.425e-2
-0.669, 2.428e-2
-0.670, 2.431e-2
-0.671, 2.433e-2
-0.672, 2.434e-2
-0.673, 2.436e-2
-0.674, 2.437e-2
-0.675, 2.439e-2
-0.676, 2.440e-2
-0.677, 2.442e-2
-0.678, 2.443e-2
-0.679, 2.445e-2
-0.680, 2.448e-2
-0.681, 2.451e-2
-0.682, 2.452e-2
-0.683, 2.453e-2
-0.684, 2.454e-2
-0.685, 2.456e-2
-0.686, 2.458e-2
-0.687, 2.459e-2
-0.688, 2.460e-2
-0.689, 2.463e-2
-0.690, 2.466e-2
-0.691, 2.470e-2
-0.692, 2.473e-2
-0.693, 2.475e-2
-0.694, 2.475e-2
-0.695, 2.477e-2
-0.696, 2.490e-2
-0.697, 2.498e-2
-0.698, 2.500e-2
-0.699, 2.502e-2
-0.700, 2.505e-2
-0.701, 2.507e-2
-0.702, 2.510e-2
-0.703, 2.513e-2
-0.704, 2.515e-2
-0.705, 2.516e-2
-0.706, 2.517e-2
-0.707, 2.518e-2
-0.708, 2.518e-2
-0.709, 2.519e-2
-0.710, 2.520e-2
-0.711, 2.521e-2
-0.712, 2.523e-2
-0.713, 2.525e-2
-0.714, 2.526e-2
-0.715, 2.527e-2
-0.716, 2.530e-2
-0.717, 2.534e-2
-0.718, 2.539e-2
-0.719, 2.540e-2
-0.720, 2.540e-2
-0.721, 2.541e-2
-0.722, 2.547e-2
-0.723, 2.549e-2
-0.724, 2.550e-2
-0.725, 2.552e-2
-0.726, 2.554e-2
-0.727, 2.557e-2
-0.728, 2.560e-2
-0.729, 2.561e-2
-0.730, 2.561e-2
-0.731, 2.561e-2
-0.732, 2.562e-2
-0.733, 2.565e-2
-0.734, 2.567e-2
-0.735, 2.569e-2
-0.736, 2.573e-2
-0.737, 2.577e-2
-0.738, 2.577e-2
-0.739, 2.578e-2
-0.740, 2.579e-2
-0.741, 2.580e-2
-0.742, 2.582e-2
-0.743, 2.586e-2
-0.744, 2.590e-2
-0.745, 2.593e-2
-0.746, 2.596e-2
-0.747, 2.599e-2
-0.748, 2.605e-2
-0.749, 2.609e-2
-0.750, 2.609e-2
-0.751, 2.609e-2
-0.752, 2.610e-2
-0.753, 2.614e-2
-0.754, 2.618e-2
-0.755, 2.621e-2
-0.756, 2.621e-2
-0.757, 2.626e-2
-0.758, 2.635e-2
-0.759, 2.644e-2
-0.760, 2.656e-2
-0.761, 2.662e-2
-0.762, 2.664e-2
-0.763, 2.669e-2
-0.764, 2.669e-2
-0.765, 2.669e-2
-0.766, 2.670e-2
-0.767, 2.672e-2
-0.768, 2.672e-2
-0.769, 2.673e-2
-0.770, 2.678e-2
-0.771, 2.680e-2
-0.772, 2.685e-2
-0.773, 2.687e-2
-0.774, 2.687e-2
-0.775, 2.689e-2
-0.776, 2.691e-2
-0.777, 2.694e-2
-0.778, 2.698e-2
-0.779, 2.701e-2
-0.780, 2.704e-2
-0.781, 2.707e-2
-0.782, 2.711e-2
-0.783, 2.714e-2
-0.784, 2.715e-2
-0.785, 2.717e-2
-0.786, 2.719e-2
-0.787, 2.721e-2
-0.788, 2.728e-2
-0.789, 2.737e-2
-0.790, 2.743e-2
-0.791, 2.748e-2
-0.792, 2.750e-2
-0.793, 2.752e-2
-0.794, 2.753e-2
-0.795, 2.764e-2
-0.796, 2.777e-2
-0.797, 2.780e-2
-0.798, 2.784e-2
-0.799, 2.786e-2
