Apr. 28, 2026   12:12:09
Cyclic Voltammetry
File: c:\users\administrator\desktop\2026.4.28\hi 2mol h2so4\0.01\run unsaved.txt
Data Source:  Experiment
Instrument Model:  CHI600E
Header: 
Note: 

Init E (V) = 0
High E (V) = 0.8
Low E (V) = -0.8
Init P/N = N
Scan Rate (V/s) = 0.01
Segment = 3
Sample Interval (V) = 0.001
Quiet Time (sec) = 2
Sensitivity (A/V) = 0.1

Segment 1:

Segment 2:

Segment 3:

Potential/V, Current/A

0.000, -2.264e-2
-0.001, -2.104e-2
-0.002, -1.991e-2
-0.003, -1.905e-2
-0.004, -1.831e-2
-0.005, -1.767e-2
-0.006, -1.708e-2
-0.007, -1.656e-2
-0.008, -1.610e-2
-0.009, -1.567e-2
-0.010, -1.530e-2
-0.011, -1.490e-2
-0.012, -1.454e-2
-0.013, -1.420e-2
-0.014, -1.389e-2
-0.015, -1.334e-2
-0.016, -1.305e-2
-0.017, -1.277e-2
-0.018, -1.250e-2
-0.019, -1.225e-2
-0.020, -1.200e-2
-0.021, -1.176e-2
-0.022, -1.153e-2
-0.023, -1.131e-2
-0.024, -1.109e-2
-0.025, -1.089e-2
-0.026, -1.068e-2
-0.027, -1.048e-2
-0.028, -1.029e-2
-0.029, -1.011e-2
-0.030, -9.925e-3
-0.031, -9.750e-3
-0.032, -9.575e-3
-0.033, -9.409e-3
-0.034, -9.244e-3
-0.035, -9.084e-3
-0.036, -8.928e-3
-0.037, -8.774e-3
-0.038, -8.621e-3
-0.039, -8.477e-3
-0.040, -8.336e-3
-0.041, -8.194e-3
-0.042, -8.059e-3
-0.043, -7.924e-3
-0.044, -7.793e-3
-0.045, -7.664e-3
-0.046, -7.538e-3
-0.047, -7.412e-3
-0.048, -7.292e-3
-0.049, -7.170e-3
-0.050, -7.053e-3
-0.051, -6.937e-3
-0.052, -6.823e-3
-0.053, -6.713e-3
-0.054, -6.602e-3
-0.055, -6.495e-3
-0.056, -6.390e-3
-0.057, -6.283e-3
-0.058, -6.182e-3
-0.059, -6.080e-3
-0.060, -5.979e-3
-0.061, -5.881e-3
-0.062, -5.786e-3
-0.063, -5.691e-3
-0.064, -5.596e-3
-0.065, -5.504e-3
-0.066, -5.415e-3
-0.067, -5.323e-3
-0.068, -5.240e-3
-0.069, -5.151e-3
-0.070, -5.065e-3
-0.071, -4.982e-3
-0.072, -4.899e-3
-0.073, -4.813e-3
-0.074, -4.734e-3
-0.075, -4.654e-3
-0.076, -4.574e-3
-0.077, -4.494e-3
-0.078, -4.418e-3
-0.079, -4.341e-3
-0.080, -4.267e-3
-0.081, -4.190e-3
-0.082, -4.120e-3
-0.083, -4.046e-3
-0.084, -3.973e-3
-0.085, -3.905e-3
-0.086, -3.835e-3
-0.087, -3.764e-3
-0.088, -3.697e-3
-0.089, -3.629e-3
-0.090, -3.565e-3
-0.091, -3.497e-3
-0.092, -3.433e-3
-0.093, -3.368e-3
-0.094, -3.304e-3
-0.095, -3.242e-3
-0.096, -3.181e-3
-0.097, -3.120e-3
-0.098, -3.058e-3
-0.099, -2.997e-3
-0.100, -2.939e-3
-0.101, -2.880e-3
-0.102, -2.822e-3
-0.103, -2.764e-3
-0.104, -2.709e-3
-0.105, -2.650e-3
-0.106, -2.595e-3
-0.107, -2.540e-3
-0.108, -2.488e-3
-0.109, -2.432e-3
-0.110, -2.380e-3
-0.111, -2.325e-3
-0.112, -2.276e-3
-0.113, -2.221e-3
-0.114, -2.172e-3
-0.115, -2.119e-3
-0.116, -2.070e-3
-0.117, -2.021e-3
-0.118, -1.972e-3
-0.119, -1.923e-3
-0.120, -1.877e-3
-0.121, -1.831e-3
-0.122, -1.782e-3
-0.123, -1.736e-3
-0.124, -1.690e-3
-0.125, -1.644e-3
-0.126, -1.598e-3
-0.127, -1.555e-3
-0.128, -1.509e-3
-0.129, -1.466e-3
-0.130, -1.420e-3
-0.131, -1.377e-3
-0.132, -1.332e-3
-0.133, -1.291e-3
-0.134, -1.248e-3
-0.135, -1.206e-3
-0.136, -1.166e-3
-0.137, -1.124e-3
-0.138, -1.085e-3
-0.139, -1.044e-3
-0.140, -1.004e-3
-0.141, -9.655e-4
-0.142, -9.256e-4
-0.143, -8.869e-4
-0.144, -8.489e-4
-0.145, -8.102e-4
-0.146, -7.737e-4
-0.147, -7.357e-4
-0.148, -6.979e-4
-0.149, -6.620e-4
-0.150, -6.255e-4
-0.151, -5.893e-4
-0.152, -5.540e-4
-0.153, -5.182e-4
-0.154, -4.823e-4
-0.155, -4.479e-4
-0.156, -4.126e-4
-0.157, -3.789e-4
-0.158, -3.445e-4
-0.159, -3.110e-4
-0.160, -2.773e-4
-0.161, -2.435e-4
-0.162, -2.113e-4
-0.163, -1.791e-4
-0.164, -1.463e-4
-0.165, -1.150e-4
-0.166, -8.173e-5
-0.167, -5.037e-5
-0.168, -1.978e-5
-0.169, 1.188e-5
-0.170, 4.189e-5
-0.171, 7.248e-5
-0.172, 1.028e-4
-0.173, 1.328e-4
-0.174, 1.628e-4
-0.175, 1.922e-4
-0.176, 2.209e-4
-0.177, 2.506e-4
-0.178, 2.786e-4
-0.179, 3.076e-4
-0.180, 3.369e-4
-0.181, 3.643e-4
-0.182, 3.925e-4
-0.183, 4.204e-4
-0.184, 4.474e-4
-0.185, 4.750e-4
-0.186, 5.023e-4
-0.187, 5.290e-4
-0.188, 5.557e-4
-0.189, 5.818e-4
-0.190, 6.082e-4
-0.191, 6.339e-4
-0.192, 6.597e-4
-0.193, 6.858e-4
-0.194, 7.107e-4
-0.195, 7.361e-4
-0.196, 7.613e-4
-0.197, 7.852e-4
-0.198, 8.113e-4
-0.199, 8.361e-4
-0.200, 8.598e-4
-0.201, 8.849e-4
-0.202, 9.082e-4
-0.203, 9.319e-4
-0.204, 9.543e-4
-0.205, 9.770e-4
-0.206, 1.001e-3
-0.207, 1.024e-3
-0.208, 1.046e-3
-0.209, 1.070e-3
-0.210, 1.091e-3
-0.211, 1.114e-3
-0.212, 1.137e-3
-0.213, 1.159e-3
-0.214, 1.181e-3
-0.215, 1.203e-3
-0.216, 1.224e-3
-0.217, 1.246e-3
-0.218, 1.267e-3
-0.219, 1.288e-3
-0.220, 1.310e-3
-0.221, 1.330e-3
-0.222, 1.351e-3
-0.223, 1.372e-3
-0.224, 1.392e-3
-0.225, 1.413e-3
-0.226, 1.433e-3
-0.227, 1.453e-3
-0.228, 1.473e-3
-0.229, 1.492e-3
-0.230, 1.512e-3
-0.231, 1.532e-3
-0.232, 1.551e-3
-0.233, 1.570e-3
-0.234, 1.589e-3
-0.235, 1.608e-3
-0.236, 1.627e-3
-0.237, 1.646e-3
-0.238, 1.665e-3
-0.239, 1.683e-3
-0.240, 1.701e-3
-0.241, 1.720e-3
-0.242, 1.738e-3
-0.243, 1.756e-3
-0.244, 1.774e-3
-0.245, 1.791e-3
-0.246, 1.809e-3
-0.247, 1.827e-3
-0.248, 1.844e-3
-0.249, 1.862e-3
-0.250, 1.879e-3
-0.251, 1.896e-3
-0.252, 1.913e-3
-0.253, 1.929e-3
-0.254, 1.947e-3
-0.255, 1.963e-3
-0.256, 1.981e-3
-0.257, 1.997e-3
-0.258, 2.013e-3
-0.259, 2.030e-3
-0.260, 2.046e-3
-0.261, 2.062e-3
-0.262, 2.078e-3
-0.263, 2.094e-3
-0.264, 2.109e-3
-0.265, 2.126e-3
-0.266, 2.141e-3
-0.267, 2.156e-3
-0.268, 2.172e-3
-0.269, 2.187e-3
-0.270, 2.203e-3
-0.271, 2.218e-3
-0.272, 2.232e-3
-0.273, 2.248e-3
-0.274, 2.262e-3
-0.275, 2.278e-3
-0.276, 2.293e-3
-0.277, 2.307e-3
-0.278, 2.321e-3
-0.279, 2.336e-3
-0.280, 2.349e-3
-0.281, 2.364e-3
-0.282, 2.379e-3
-0.283, 2.393e-3
-0.284, 2.407e-3
-0.285, 2.420e-3
-0.286, 2.435e-3
-0.287, 2.448e-3
-0.288, 2.462e-3
-0.289, 2.477e-3
-0.290, 2.490e-3
-0.291, 2.503e-3
-0.292, 2.517e-3
-0.293, 2.529e-3
-0.294, 2.543e-3
-0.295, 2.557e-3
-0.296, 2.570e-3
-0.297, 2.583e-3
-0.298, 2.596e-3
-0.299, 2.609e-3
-0.300, 2.622e-3
-0.301, 2.635e-3
-0.302, 2.648e-3
-0.303, 2.660e-3
-0.304, 2.672e-3
-0.305, 2.686e-3
-0.306, 2.698e-3
-0.307, 2.711e-3
-0.308, 2.724e-3
-0.309, 2.736e-3
-0.310, 2.748e-3
-0.311, 2.760e-3
-0.312, 2.772e-3
-0.313, 2.784e-3
-0.314, 2.796e-3
-0.315, 2.809e-3
-0.316, 2.821e-3
-0.317, 2.832e-3
-0.318, 2.844e-3
-0.319, 2.856e-3
-0.320, 2.867e-3
-0.321, 2.879e-3
-0.322, 2.891e-3
-0.323, 2.902e-3
-0.324, 2.914e-3
-0.325, 2.925e-3
-0.326, 2.937e-3
-0.327, 2.949e-3
-0.328, 2.959e-3
-0.329, 2.971e-3
-0.330, 2.981e-3
-0.331, 2.993e-3
-0.332, 3.004e-3
-0.333, 3.015e-3
-0.334, 3.020e-3
-0.335, 3.029e-3
-0.336, 3.041e-3
-0.337, 3.050e-3
-0.338, 3.060e-3
-0.339, 3.072e-3
-0.340, 3.084e-3
-0.341, 3.093e-3
-0.342, 3.103e-3
-0.343, 3.115e-3
-0.344, 3.124e-3
-0.345, 3.136e-3
-0.346, 3.146e-3
-0.347, 3.158e-3
-0.348, 3.167e-3
-0.349, 3.176e-3
-0.350, 3.188e-3
-0.351, 3.198e-3
-0.352, 3.207e-3
-0.353, 3.219e-3
-0.354, 3.228e-3
-0.355, 3.238e-3
-0.356, 3.250e-3
-0.357, 3.259e-3
-0.358, 3.268e-3
-0.359, 3.281e-3
-0.360, 3.290e-3
-0.361, 3.299e-3
-0.362, 3.308e-3
-0.363, 3.317e-3
-0.364, 3.327e-3
-0.365, 3.339e-3
-0.366, 3.348e-3
-0.367, 3.357e-3
-0.368, 3.366e-3
-0.369, 3.376e-3
-0.370, 3.385e-3
-0.371, 3.397e-3
-0.372, 3.406e-3
-0.373, 3.419e-3
-0.374, 3.428e-3
-0.375, 3.437e-3
-0.376, 3.446e-3
-0.377, 3.455e-3
-0.378, 3.465e-3
-0.379, 3.474e-3
-0.380, 3.483e-3
-0.381, 3.492e-3
-0.382, 3.501e-3
-0.383, 3.514e-3
-0.384, 3.523e-3
-0.385, 3.529e-3
-0.386, 3.538e-3
-0.387, 3.551e-3
-0.388, 3.557e-3
-0.389, 3.566e-3
-0.390, 3.578e-3
-0.391, 3.587e-3
-0.392, 3.597e-3
-0.393, 3.603e-3
-0.394, 3.612e-3
-0.395, 3.621e-3
-0.396, 3.630e-3
-0.397, 3.639e-3
-0.398, 3.649e-3
-0.399, 3.658e-3
-0.400, 3.667e-3
-0.401, 3.676e-3
-0.402, 3.686e-3
-0.403, 3.695e-3
-0.404, 3.704e-3
-0.405, 3.710e-3
-0.406, 3.719e-3
-0.407, 3.728e-3
-0.408, 3.738e-3
-0.409, 3.747e-3
-0.410, 3.756e-3
-0.411, 3.765e-3
-0.412, 3.771e-3
-0.413, 3.784e-3
-0.414, 3.793e-3
-0.415, 3.802e-3
-0.416, 3.811e-3
-0.417, 3.817e-3
-0.418, 3.830e-3
-0.419, 3.839e-3
-0.420, 3.845e-3
-0.421, 3.851e-3
-0.422, 3.860e-3
-0.423, 3.870e-3
-0.424, 3.876e-3
-0.425, 3.885e-3
-0.426, 3.894e-3
-0.427, 3.900e-3
-0.428, 3.913e-3
-0.429, 3.922e-3
-0.430, 3.928e-3
-0.431, 3.934e-3
-0.432, 3.943e-3
-0.433, 3.949e-3
-0.434, 3.959e-3
-0.435, 3.971e-3
-0.436, 3.980e-3
-0.437, 3.989e-3
-0.438, 3.998e-3
-0.439, 4.008e-3
-0.440, 4.014e-3
-0.441, 4.023e-3
-0.442, 4.029e-3
-0.443, 4.038e-3
-0.444, 4.044e-3
-0.445, 4.060e-3
-0.446, 4.066e-3
-0.447, 4.075e-3
-0.448, 4.084e-3
-0.449, 4.091e-3
-0.450, 4.100e-3
-0.451, 4.106e-3
-0.452, 4.115e-3
-0.453, 4.121e-3
-0.454, 4.130e-3
-0.455, 4.137e-3
-0.456, 4.143e-3
-0.457, 4.152e-3
-0.458, 4.161e-3
-0.459, 4.170e-3
-0.460, 4.179e-3
-0.461, 4.186e-3
-0.462, 4.198e-3
-0.463, 4.204e-3
-0.464, 4.210e-3
-0.465, 4.226e-3
-0.466, 4.235e-3
-0.467, 4.244e-3
-0.468, 4.253e-3
-0.469, 4.259e-3
-0.470, 4.268e-3
-0.471, 4.275e-3
-0.472, 4.287e-3
-0.473, 4.299e-3
-0.474, 4.308e-3
-0.475, 4.314e-3
-0.476, 4.327e-3
-0.477, 4.333e-3
-0.478, 4.342e-3
-0.479, 4.351e-3
-0.480, 4.357e-3
-0.481, 4.373e-3
-0.482, 4.379e-3
-0.483, 4.385e-3
-0.484, 4.391e-3
-0.485, 4.397e-3
-0.486, 4.403e-3
-0.487, 4.410e-3
-0.488, 4.416e-3
-0.489, 4.425e-3
-0.490, 4.434e-3
-0.491, 4.449e-3
-0.492, 4.459e-3
-0.493, 4.465e-3
-0.494, 4.474e-3
-0.495, 4.480e-3
-0.496, 4.489e-3
-0.497, 4.496e-3
-0.498, 4.505e-3
-0.499, 4.514e-3
-0.500, 4.523e-3
-0.501, 4.529e-3
-0.502, 4.535e-3
-0.503, 4.542e-3
-0.504, 4.548e-3
-0.505, 4.551e-3
-0.506, 4.560e-3
-0.507, 4.563e-3
-0.508, 4.566e-3
-0.509, 4.581e-3
-0.510, 4.606e-3
-0.511, 4.615e-3
-0.512, 4.621e-3
-0.513, 4.627e-3
-0.514, 4.631e-3
-0.515, 4.640e-3
-0.516, 4.649e-3
-0.517, 4.658e-3
-0.518, 4.667e-3
-0.519, 4.673e-3
-0.520, 4.673e-3
-0.521, 4.689e-3
-0.522, 4.695e-3
-0.523, 4.701e-3
-0.524, 4.704e-3
-0.525, 4.716e-3
-0.526, 4.716e-3
-0.527, 4.719e-3
-0.528, 4.729e-3
-0.529, 4.738e-3
-0.530, 4.744e-3
-0.531, 4.766e-3
-0.532, 4.778e-3
-0.533, 4.784e-3
-0.534, 4.790e-3
-0.535, 4.796e-3
-0.536, 4.799e-3
-0.537, 4.808e-3
-0.538, 4.812e-3
-0.539, 4.827e-3
-0.540, 4.836e-3
-0.541, 4.842e-3
-0.542, 4.858e-3
-0.543, 4.870e-3
-0.544, 4.879e-3
-0.545, 4.842e-3
-0.546, 4.842e-3
-0.547, 4.845e-3
-0.548, 4.845e-3
-0.549, 4.854e-3
-0.550, 4.870e-3
-0.551, 4.879e-3
-0.552, 4.888e-3
-0.553, 4.897e-3
-0.554, 4.910e-3
-0.555, 4.919e-3
-0.556, 4.937e-3
-0.557, 4.950e-3
-0.558, 4.953e-3
-0.559, 4.956e-3
-0.560, 4.962e-3
-0.561, 4.974e-3
-0.562, 4.980e-3
-0.563, 4.986e-3
-0.564, 4.996e-3
-0.565, 5.002e-3
-0.566, 5.014e-3
-0.567, 5.026e-3
-0.568, 5.029e-3
-0.569, 5.032e-3
-0.570, 5.042e-3
-0.571, 5.054e-3
-0.572, 5.060e-3
-0.573, 5.066e-3
-0.574, 5.072e-3
-0.575, 5.078e-3
-0.576, 5.078e-3
-0.577, 5.085e-3
-0.578, 5.103e-3
-0.579, 5.109e-3
-0.580, 5.115e-3
-0.581, 5.131e-3
-0.582, 5.155e-3
-0.583, 5.164e-3
-0.584, 5.174e-3
-0.585, 5.195e-3
-0.586, 5.195e-3
-0.587, 5.195e-3
-0.588, 5.201e-3
-0.589, 5.210e-3
-0.590, 5.226e-3
-0.591, 5.241e-3
-0.592, 5.250e-3
-0.593, 5.253e-3
-0.594, 5.259e-3
-0.595, 5.275e-3
-0.596, 5.287e-3
-0.597, 5.287e-3
-0.598, 5.296e-3
-0.599, 5.309e-3
-0.600, 5.312e-3
-0.601, 5.318e-3
-0.602, 5.333e-3
-0.603, 5.345e-3
-0.604, 5.355e-3
-0.605, 5.367e-3
-0.606, 5.373e-3
-0.607, 5.376e-3
-0.608, 5.385e-3
-0.609, 5.398e-3
-0.610, 5.404e-3
-0.611, 5.410e-3
-0.612, 5.419e-3
-0.613, 5.428e-3
-0.614, 5.441e-3
-0.615, 5.459e-3
-0.616, 5.459e-3
-0.617, 5.471e-3
-0.618, 5.477e-3
-0.619, 5.493e-3
-0.620, 5.505e-3
-0.621, 5.511e-3
-0.622, 5.514e-3
-0.623, 5.520e-3
-0.624, 5.520e-3
-0.625, 5.563e-3
-0.626, 5.600e-3
-0.627, 5.612e-3
-0.628, 5.628e-3
-0.629, 5.640e-3
-0.630, 5.658e-3
-0.631, 5.664e-3
-0.632, 5.674e-3
-0.633, 5.683e-3
-0.634, 5.689e-3
-0.635, 5.695e-3
-0.636, 5.701e-3
-0.637, 5.711e-3
-0.638, 5.714e-3
-0.639, 5.723e-3
-0.640, 5.757e-3
-0.641, 5.772e-3
-0.642, 5.778e-3
-0.643, 5.809e-3
-0.644, 5.839e-3
-0.645, 5.833e-3
-0.646, 5.836e-3
-0.647, 5.839e-3
-0.648, 5.842e-3
-0.649, 5.852e-3
-0.650, 5.861e-3
-0.651, 5.898e-3
-0.652, 5.916e-3
-0.653, 5.919e-3
-0.654, 5.922e-3
-0.655, 5.925e-3
-0.656, 5.928e-3
-0.657, 5.934e-3
-0.658, 5.950e-3
-0.659, 5.965e-3
-0.660, 5.968e-3
-0.661, 5.984e-3
-0.662, 5.996e-3
-0.663, 6.017e-3
-0.664, 6.030e-3
-0.665, 6.039e-3
-0.666, 6.042e-3
-0.667, 6.054e-3
-0.668, 6.057e-3
-0.669, 6.063e-3
-0.670, 6.082e-3
-0.671, 6.103e-3
-0.672, 6.112e-3
-0.673, 6.122e-3
-0.674, 6.143e-3
-0.675, 6.195e-3
-0.676, 6.257e-3
-0.677, 6.257e-3
-0.678, 6.315e-3
-0.679, 6.382e-3
-0.680, 6.361e-3
-0.681, 6.361e-3
-0.682, 6.361e-3
-0.683, 6.379e-3
-0.684, 6.416e-3
-0.685, 6.438e-3
-0.686, 6.459e-3
-0.687, 6.462e-3
-0.688, 6.474e-3
-0.689, 6.481e-3
-0.690, 6.490e-3
-0.691, 6.517e-3
-0.692, 6.530e-3
-0.693, 6.554e-3
-0.694, 6.563e-3
-0.695, 6.576e-3
-0.696, 6.573e-3
-0.697, 6.600e-3
-0.698, 6.613e-3
-0.699, 6.609e-3
-0.700, 6.646e-3
-0.701, 6.665e-3
-0.702, 6.671e-3
-0.703, 6.680e-3
-0.704, 6.692e-3
-0.705, 6.717e-3
-0.706, 6.772e-3
-0.707, 6.815e-3
-0.708, 6.815e-3
-0.709, 6.837e-3
-0.710, 6.852e-3
-0.711, 6.861e-3
-0.712, 6.870e-3
-0.713, 6.895e-3
-0.714, 6.922e-3
-0.715, 6.947e-3
-0.716, 7.018e-3
-0.717, 7.039e-3
-0.718, 7.070e-3
-0.719, 7.116e-3
-0.720, 7.156e-3
-0.721, 7.192e-3
-0.722, 7.263e-3
-0.723, 7.288e-3
-0.724, 7.315e-3
-0.725, 7.355e-3
-0.726, 7.383e-3
-0.727, 7.429e-3
-0.728, 7.435e-3
-0.729, 7.493e-3
-0.730, 7.518e-3
-0.731, 7.539e-3
-0.732, 7.545e-3
-0.733, 7.561e-3
-0.734, 7.588e-3
-0.735, 7.634e-3
-0.736, 7.686e-3
-0.737, 7.723e-3
-0.738, 7.742e-3
-0.739, 7.794e-3
-0.740, 7.806e-3
-0.741, 7.812e-3
-0.742, 7.864e-3
-0.743, 7.898e-3
-0.744, 7.910e-3
-0.745, 7.923e-3
-0.746, 7.944e-3
-0.747, 7.984e-3
-0.748, 8.088e-3
-0.749, 8.141e-3
-0.750, 8.183e-3
-0.751, 8.193e-3
-0.752, 8.202e-3
-0.753, 8.199e-3
-0.754, 8.205e-3
-0.755, 8.236e-3
-0.756, 8.245e-3
-0.757, 8.294e-3
-0.758, 8.361e-3
-0.759, 8.398e-3
-0.760, 8.441e-3
-0.761, 8.487e-3
-0.762, 8.533e-3
-0.763, 8.555e-3
-0.764, 8.582e-3
-0.765, 8.641e-3
-0.766, 8.659e-3
-0.767, 8.671e-3
-0.768, 8.705e-3
-0.769, 8.748e-3
-0.770, 8.803e-3
-0.771, 8.889e-3
-0.772, 9.003e-3
-0.773, 9.064e-3
-0.774, 9.128e-3
-0.775, 9.162e-3
-0.776, 9.227e-3
-0.777, 9.297e-3
-0.778, 9.365e-3
-0.779, 9.408e-3
-0.780, 9.441e-3
-0.781, 9.463e-3
-0.782, 9.527e-3
-0.783, 9.546e-3
-0.784, 9.653e-3
-0.785, 9.714e-3
-0.786, 9.791e-3
-0.787, 9.837e-3
-0.788, 9.868e-3
-0.789, 9.938e-3
-0.790, 9.997e-3
-0.791, 1.007e-2
-0.792, 1.013e-2
-0.793, 1.019e-2
-0.794, 1.026e-2
-0.795, 1.036e-2
-0.796, 1.040e-2
-0.797, 1.047e-2
-0.798, 1.060e-2
-0.799, 1.065e-2
-0.800, 1.061e-2
-0.799, 1.042e-2
-0.798, 1.027e-2
-0.797, 1.020e-2
-0.796, 1.099e-2
-0.795, 1.113e-2
-0.794, 1.095e-2
-0.793, 1.083e-2
-0.792, 1.066e-2
-0.791, 1.050e-2
-0.790, 1.038e-2
-0.789, 1.017e-2
-0.788, 9.988e-3
-0.787, 9.834e-3
-0.786, 9.708e-3
-0.785, 9.604e-3
-0.784, 9.543e-3
-0.783, 9.392e-3
-0.782, 9.248e-3
-0.781, 9.178e-3
-0.780, 9.141e-3
-0.779, 9.012e-3
-0.778, 8.917e-3
-0.777, 8.846e-3
-0.776, 8.739e-3
-0.775, 8.628e-3
-0.774, 8.475e-3
-0.773, 8.349e-3
-0.772, 8.266e-3
-0.771, 8.190e-3
-0.770, 8.128e-3
-0.769, 8.055e-3
-0.768, 7.969e-3
-0.767, 7.953e-3
-0.766, 7.843e-3
-0.765, 7.748e-3
-0.764, 7.591e-3
-0.763, 7.536e-3
-0.762, 7.472e-3
-0.761, 7.358e-3
-0.760, 7.278e-3
-0.759, 7.177e-3
-0.758, 7.094e-3
-0.757, 7.021e-3
-0.756, 6.984e-3
-0.755, 6.910e-3
-0.754, 6.794e-3
-0.753, 6.692e-3
-0.752, 6.646e-3
-0.751, 6.570e-3
-0.750, 6.517e-3
-0.749, 6.386e-3
-0.748, 6.306e-3
-0.747, 6.226e-3
-0.746, 6.287e-3
-0.745, 6.186e-3
-0.744, 6.106e-3
-0.743, 6.014e-3
-0.742, 5.938e-3
-0.741, 5.858e-3
-0.740, 5.790e-3
-0.739, 5.723e-3
-0.738, 5.606e-3
-0.737, 5.539e-3
-0.736, 5.437e-3
-0.735, 5.364e-3
-0.734, 5.275e-3
-0.733, 5.235e-3
-0.732, 5.247e-3
-0.731, 5.198e-3
-0.730, 5.097e-3
-0.729, 5.005e-3
-0.728, 4.962e-3
-0.727, 4.885e-3
-0.726, 4.815e-3
-0.725, 4.719e-3
-0.724, 4.646e-3
-0.723, 4.557e-3
-0.722, 4.520e-3
-0.721, 4.483e-3
-0.720, 4.477e-3
-0.719, 4.446e-3
-0.718, 4.385e-3
-0.717, 4.327e-3
-0.716, 4.241e-3
-0.715, 4.195e-3
-0.714, 4.133e-3
-0.713, 4.112e-3
-0.712, 4.103e-3
-0.711, 4.041e-3
-0.710, 3.998e-3
-0.709, 3.946e-3
-0.708, 3.900e-3
-0.707, 3.870e-3
-0.706, 3.811e-3
-0.705, 3.750e-3
-0.704, 3.679e-3
-0.703, 3.615e-3
-0.702, 3.581e-3
-0.701, 3.597e-3
-0.700, 3.517e-3
-0.699, 3.446e-3
-0.698, 3.376e-3
-0.697, 3.327e-3
-0.696, 3.262e-3
-0.695, 3.207e-3
-0.694, 3.158e-3
-0.693, 3.109e-3
-0.692, 3.057e-3
-0.691, 3.001e-3
-0.690, 2.971e-3
-0.689, 2.915e-3
-0.688, 2.851e-3
-0.687, 2.790e-3
-0.686, 2.734e-3
-0.685, 2.707e-3
-0.684, 2.661e-3
-0.683, 2.642e-3
-0.682, 2.581e-3
-0.681, 2.556e-3
-0.680, 2.513e-3
-0.679, 2.467e-3
-0.678, 2.406e-3
-0.677, 2.348e-3
-0.676, 2.289e-3
-0.675, 2.240e-3
-0.674, 2.194e-3
-0.673, 2.176e-3
-0.672, 2.148e-3
-0.671, 2.090e-3
-0.670, 2.035e-3
-0.669, 1.989e-3
-0.668, 1.931e-3
-0.667, 1.906e-3
-0.666, 1.891e-3
-0.665, 1.851e-3
-0.664, 1.792e-3
-0.663, 1.740e-3
-0.662, 1.697e-3
-0.661, 1.679e-3
-0.660, 1.642e-3
-0.659, 1.593e-3
-0.658, 1.550e-3
-0.657, 1.525e-3
-0.656, 1.497e-3
-0.655, 1.467e-3
-0.654, 1.418e-3
-0.653, 1.420e-3
-0.652, 1.403e-3
-0.651, 1.355e-3
-0.650, 1.303e-3
-0.649, 1.261e-3
-0.648, 1.216e-3
-0.647, 1.175e-3
-0.646, 1.146e-3
-0.645, 1.109e-3
-0.644, 1.076e-3
-0.643, 1.049e-3
-0.642, 1.009e-3
-0.641, 9.647e-4
-0.640, 9.395e-4
-0.639, 9.101e-4
-0.638, 8.944e-4
-0.637, 9.064e-4
-0.636, 8.828e-4
-0.635, 8.457e-4
-0.634, 8.042e-4
-0.633, 7.601e-4
-0.632, 7.349e-4
-0.631, 6.993e-4
-0.630, 6.585e-4
-0.629, 6.352e-4
-0.628, 6.027e-4
-0.627, 6.217e-4
-0.626, 9.058e-4
-0.625, 8.972e-4
-0.624, 8.576e-4
-0.623, 8.282e-4
-0.622, 7.901e-4
-0.621, 7.561e-4
-0.620, 7.116e-4
-0.619, 6.769e-4
-0.618, 6.634e-4
-0.617, 6.410e-4
-0.616, 6.125e-4
-0.615, 5.821e-4
-0.614, 5.447e-4
-0.613, 5.352e-4
-0.612, 4.989e-4
-0.611, 4.655e-4
-0.610, 4.376e-4
-0.609, 4.152e-4
-0.608, 4.017e-4
-0.607, 3.646e-4
-0.606, 3.351e-4
-0.605, 3.001e-4
-0.604, 2.633e-4
-0.603, 2.314e-4
-0.602, 2.038e-4
-0.601, 1.682e-4
-0.600, 1.265e-4
-0.599, 1.015e-4
-0.598, 7.407e-5
-0.597, 4.588e-5
-0.596, 2.351e-5
-0.595, 3.836e-5
-0.594, 1.354e-5
-0.593, -1.675e-5
-0.592, -4.663e-5
-0.591, -5.936e-5
-0.590, -5.028e-5
-0.589, -7.682e-5
-0.588, -9.563e-5
-0.587, -1.283e-4
-0.586, -1.562e-4
-0.585, -1.804e-4
-0.584, -2.061e-4
-0.583, -2.346e-4
-0.582, -2.505e-4
-0.581, -2.791e-4
-0.580, -3.032e-4
-0.579, -3.270e-4
-0.578, -3.571e-4
-0.577, -3.736e-4
-0.576, -4.028e-4
-0.575, -4.243e-4
-0.574, -4.362e-4
-0.573, -4.500e-4
-0.572, -4.638e-4
-0.571, -4.801e-4
-0.570, -5.007e-4
-0.569, -5.224e-4
-0.568, -5.292e-4
-0.567, -5.498e-4
-0.566, -5.749e-4
-0.565, -6.038e-4
-0.564, -6.252e-4
-0.563, -6.458e-4
-0.562, -6.685e-4
-0.561, -6.875e-4
-0.560, -7.075e-4
-0.559, -7.286e-4
-0.558, -7.421e-4
-0.557, -7.483e-4
-0.556, -7.651e-4
-0.555, -7.814e-4
-0.554, -8.007e-4
-0.553, -8.170e-4
-0.552, -8.388e-4
-0.551, -8.553e-4
-0.550, -8.618e-4
-0.549, -8.722e-4
-0.548, -8.900e-4
-0.547, -9.017e-4
-0.546, -9.198e-4
-0.545, -9.397e-4
-0.544, -9.551e-4
-0.543, -9.710e-4
-0.542, -9.879e-4
-0.541, -1.007e-3
-0.540, -1.027e-3
-0.539, -1.041e-3
-0.538, -1.061e-3
-0.537, -1.079e-3
-0.536, -1.096e-3
-0.535, -1.112e-3
-0.534, -1.128e-3
-0.533, -1.144e-3
-0.532, -1.164e-3
-0.531, -1.186e-3
-0.530, -1.205e-3
-0.529, -1.222e-3
-0.528, -1.238e-3
-0.527, -1.241e-3
-0.526, -1.255e-3
-0.525, -1.259e-3
-0.524, -1.265e-3
-0.523, -1.285e-3
-0.522, -1.302e-3
-0.521, -1.321e-3
-0.520, -1.342e-3
-0.519, -1.362e-3
-0.518, -1.380e-3
-0.517, -1.393e-3
-0.516, -1.397e-3
-0.515, -1.410e-3
-0.514, -1.428e-3
-0.513, -1.446e-3
-0.512, -1.465e-3
-0.511, -1.479e-3
-0.510, -1.492e-3
-0.509, -1.506e-3
-0.508, -1.524e-3
-0.507, -1.538e-3
-0.506, -1.556e-3
-0.505, -1.568e-3
-0.504, -1.581e-3
-0.503, -1.596e-3
-0.502, -1.610e-3
-0.501, -1.623e-3
-0.500, -1.641e-3
-0.499, -1.654e-3
-0.498, -1.671e-3
-0.497, -1.687e-3
-0.496, -1.703e-3
-0.495, -1.719e-3
-0.494, -1.731e-3
-0.493, -1.748e-3
-0.492, -1.763e-3
-0.491, -1.774e-3
-0.490, -1.788e-3
-0.489, -1.804e-3
-0.488, -1.817e-3
-0.487, -1.831e-3
-0.486, -1.843e-3
-0.485, -1.861e-3
-0.484, -1.875e-3
-0.483, -1.889e-3
-0.482, -1.901e-3
-0.481, -1.915e-3
-0.480, -1.926e-3
-0.479, -1.939e-3
-0.478, -1.953e-3
-0.477, -1.966e-3
-0.476, -1.980e-3
-0.475, -1.994e-3
-0.474, -2.005e-3
-0.473, -2.017e-3
-0.472, -2.024e-3
-0.471, -2.031e-3
-0.470, -2.045e-3
-0.469, -2.059e-3
-0.468, -2.072e-3
-0.467, -2.087e-3
-0.466, -2.099e-3
-0.465, -2.115e-3
-0.464, -2.125e-3
-0.463, -2.138e-3
-0.462, -2.149e-3
-0.461, -2.163e-3
-0.460, -2.176e-3
-0.459, -2.186e-3
-0.458, -2.200e-3
-0.457, -2.210e-3
-0.456, -2.222e-3
-0.455, -2.235e-3
-0.454, -2.246e-3
-0.453, -2.257e-3
-0.452, -2.268e-3
-0.451, -2.273e-3
-0.450, -2.281e-3
-0.449, -2.292e-3
-0.448, -2.303e-3
-0.447, -2.313e-3
-0.446, -2.324e-3
-0.445, -2.336e-3
-0.444, -2.344e-3
-0.443, -2.355e-3
-0.442, -2.366e-3
-0.441, -2.377e-3
-0.440, -2.386e-3
-0.439, -2.395e-3
-0.438, -2.406e-3
-0.437, -2.417e-3
-0.436, -2.427e-3
-0.435, -2.439e-3
-0.434, -2.451e-3
-0.433, -2.461e-3
-0.432, -2.472e-3
-0.431, -2.480e-3
-0.430, -2.493e-3
-0.429, -2.505e-3
-0.428, -2.518e-3
-0.427, -2.528e-3
-0.426, -2.539e-3
-0.425, -2.548e-3
-0.424, -2.559e-3
-0.423, -2.569e-3
-0.422, -2.580e-3
-0.421, -2.590e-3
-0.420, -2.599e-3
-0.419, -2.609e-3
-0.418, -2.620e-3
-0.417, -2.628e-3
-0.416, -2.640e-3
-0.415, -2.649e-3
-0.414, -2.659e-3
-0.413, -2.668e-3
-0.412, -2.678e-3
-0.411, -2.687e-3
-0.410, -2.700e-3
-0.409, -2.710e-3
-0.408, -2.718e-3
-0.407, -2.729e-3
-0.406, -2.737e-3
-0.405, -2.747e-3
-0.404, -2.757e-3
-0.403, -2.766e-3
-0.402, -2.776e-3
-0.401, -2.786e-3
-0.400, -2.794e-3
-0.399, -2.805e-3
-0.398, -2.812e-3
-0.397, -2.822e-3
-0.396, -2.833e-3
-0.395, -2.841e-3
-0.394, -2.851e-3
-0.393, -2.859e-3
-0.392, -2.868e-3
-0.391, -2.878e-3
-0.390, -2.886e-3
-0.389, -2.896e-3
-0.388, -2.906e-3
-0.387, -2.916e-3
-0.386, -2.924e-3
-0.385, -2.934e-3
-0.384, -2.942e-3
-0.383, -2.953e-3
-0.382, -2.957e-3
-0.381, -2.963e-3
-0.380, -2.972e-3
-0.379, -2.979e-3
-0.378, -2.987e-3
-0.377, -2.998e-3
-0.376, -3.006e-3
-0.375, -3.015e-3
-0.374, -3.022e-3
-0.373, -3.031e-3
-0.372, -3.040e-3
-0.371, -3.046e-3
-0.370, -3.052e-3
-0.369, -3.064e-3
-0.368, -3.071e-3
-0.367, -3.080e-3
-0.366, -3.089e-3
-0.365, -3.098e-3
-0.364, -3.104e-3
-0.363, -3.110e-3
-0.362, -3.123e-3
-0.361, -3.132e-3
-0.360, -3.141e-3
-0.359, -3.150e-3
-0.358, -3.160e-3
-0.357, -3.172e-3
-0.356, -3.181e-3
-0.355, -3.187e-3
-0.354, -3.196e-3
-0.353, -3.206e-3
-0.352, -3.218e-3
-0.351, -3.227e-3
-0.350, -3.236e-3
-0.349, -3.242e-3
-0.348, -3.252e-3
-0.347, -3.261e-3
-0.346, -3.270e-3
-0.345, -3.279e-3
-0.344, -3.288e-3
-0.343, -3.298e-3
-0.342, -3.307e-3
-0.341, -3.316e-3
-0.340, -3.325e-3
-0.339, -3.334e-3
-0.338, -3.344e-3
-0.337, -3.353e-3
-0.336, -3.359e-3
-0.335, -3.368e-3
-0.334, -3.377e-3
-0.333, -3.387e-3
-0.332, -3.396e-3
-0.331, -3.405e-3
-0.330, -3.414e-3
-0.329, -3.420e-3
-0.328, -3.430e-3
-0.327, -3.439e-3
-0.326, -3.448e-3
-0.325, -3.454e-3
-0.324, -3.463e-3
-0.323, -3.473e-3
-0.322, -3.485e-3
-0.321, -3.491e-3
-0.320, -3.500e-3
-0.319, -3.509e-3
-0.318, -3.515e-3
-0.317, -3.525e-3
-0.316, -3.534e-3
-0.315, -3.543e-3
-0.314, -3.552e-3
-0.313, -3.558e-3
-0.312, -3.568e-3
-0.311, -3.577e-3
-0.310, -3.586e-3
-0.309, -3.592e-3
-0.308, -3.601e-3
-0.307, -3.611e-3
-0.306, -3.620e-3
-0.305, -3.626e-3
-0.304, -3.635e-3
-0.303, -3.644e-3
-0.302, -3.650e-3
-0.301, -3.660e-3
-0.300, -3.669e-3
-0.299, -3.675e-3
-0.298, -3.684e-3
-0.297, -3.693e-3
-0.296, -3.700e-3
-0.295, -3.709e-3
-0.294, -3.718e-3
-0.293, -3.724e-3
-0.292, -3.736e-3
-0.291, -3.746e-3
-0.290, -3.755e-3
-0.289, -3.764e-3
-0.288, -3.770e-3
-0.287, -3.779e-3
-0.286, -3.789e-3
-0.285, -3.795e-3
-0.284, -3.804e-3
-0.283, -3.810e-3
-0.282, -3.819e-3
-0.281, -3.828e-3
-0.280, -3.835e-3
-0.279, -3.844e-3
-0.278, -3.853e-3
-0.277, -3.859e-3
-0.276, -3.868e-3
-0.275, -3.878e-3
-0.274, -3.884e-3
-0.273, -3.893e-3
-0.272, -3.899e-3
-0.271, -3.908e-3
-0.270, -3.917e-3
-0.269, -3.924e-3
-0.268, -3.933e-3
-0.267, -3.939e-3
-0.266, -3.948e-3
-0.265, -3.957e-3
-0.264, -3.963e-3
-0.263, -3.973e-3
-0.262, -3.982e-3
-0.261, -3.988e-3
-0.260, -3.997e-3
-0.259, -4.003e-3
-0.258, -4.013e-3
-0.257, -4.019e-3
-0.256, -4.028e-3
-0.255, -4.037e-3
-0.254, -4.046e-3
-0.253, -4.052e-3
-0.252, -4.062e-3
-0.251, -4.068e-3
-0.250, -4.077e-3
-0.249, -4.083e-3
-0.248, -4.092e-3
-0.247, -4.098e-3
-0.246, -4.108e-3
-0.245, -4.114e-3
-0.244, -4.123e-3
-0.243, -4.129e-3
-0.242, -4.138e-3
-0.241, -4.144e-3
-0.240, -4.154e-3
-0.239, -4.163e-3
-0.238, -4.169e-3
-0.237, -4.178e-3
-0.236, -4.184e-3
-0.235, -4.194e-3
-0.234, -4.200e-3
-0.233, -4.209e-3
-0.232, -4.215e-3
-0.231, -4.224e-3
-0.230, -4.230e-3
-0.229, -4.240e-3
-0.228, -4.246e-3
-0.227, -4.255e-3
-0.226, -4.261e-3
-0.225, -4.270e-3
-0.224, -4.276e-3
-0.223, -4.286e-3
-0.222, -4.295e-3
-0.221, -4.301e-3
-0.220, -4.310e-3
-0.219, -4.316e-3
-0.218, -4.325e-3
-0.217, -4.332e-3
-0.216, -4.338e-3
-0.215, -4.347e-3
-0.214, -4.353e-3
-0.213, -4.362e-3
-0.212, -4.372e-3
-0.211, -4.378e-3
-0.210, -4.387e-3
-0.209, -4.393e-3
-0.208, -4.399e-3
-0.207, -4.408e-3
-0.206, -4.414e-3
-0.205, -4.424e-3
-0.204, -4.430e-3
-0.203, -4.439e-3
-0.202, -4.445e-3
-0.201, -4.454e-3
-0.200, -4.460e-3
-0.199, -4.467e-3
-0.198, -4.476e-3
-0.197, -4.482e-3
-0.196, -4.491e-3
-0.195, -4.497e-3
-0.194, -4.507e-3
-0.193, -4.513e-3
-0.192, -4.522e-3
-0.191, -4.528e-3
-0.190, -4.534e-3
-0.189, -4.543e-3
-0.188, -4.549e-3
-0.187, -4.559e-3
-0.186, -4.565e-3
-0.185, -4.574e-3
-0.184, -4.580e-3
-0.183, -4.586e-3
-0.182, -4.595e-3
-0.181, -4.602e-3
-0.180, -4.611e-3
-0.179, -4.617e-3
-0.178, -4.626e-3
-0.177, -4.632e-3
-0.176, -4.638e-3
-0.175, -4.648e-3
-0.174, -4.654e-3
-0.173, -4.663e-3
-0.172, -4.672e-3
-0.171, -4.678e-3
-0.170, -4.684e-3
-0.169, -4.694e-3
-0.168, -4.700e-3
-0.167, -4.709e-3
-0.166, -4.715e-3
-0.165, -4.724e-3
-0.164, -4.730e-3
-0.163, -4.737e-3
-0.162, -4.746e-3
-0.161, -4.752e-3
-0.160, -4.761e-3
-0.159, -4.767e-3
-0.158, -4.780e-3
-0.157, -4.789e-3
-0.156, -4.795e-3
-0.155, -4.804e-3
-0.154, -4.810e-3
-0.153, -4.819e-3
-0.152, -4.826e-3
-0.151, -4.832e-3
-0.150, -4.841e-3
-0.149, -4.847e-3
-0.148, -4.856e-3
-0.147, -4.862e-3
-0.146, -4.872e-3
-0.145, -4.878e-3
-0.144, -4.884e-3
-0.143, -4.893e-3
-0.142, -4.899e-3
-0.141, -4.905e-3
-0.140, -4.915e-3
-0.139, -4.921e-3
-0.138, -4.930e-3
-0.137, -4.936e-3
-0.136, -4.942e-3
-0.135, -4.951e-3
-0.134, -4.958e-3
-0.133, -4.967e-3
-0.132, -4.973e-3
-0.131, -4.979e-3
-0.130, -4.988e-3
-0.129, -4.997e-3
-0.128, -5.004e-3
-0.127, -5.010e-3
-0.126, -5.019e-3
-0.125, -5.025e-3
-0.124, -5.034e-3
-0.123, -5.040e-3
-0.122, -5.050e-3
-0.121, -5.056e-3
-0.120, -5.062e-3
-0.119, -5.071e-3
-0.118, -5.077e-3
-0.117, -5.083e-3
-0.116, -5.093e-3
-0.115, -5.099e-3
-0.114, -5.108e-3
-0.113, -5.114e-3
-0.112, -5.123e-3
-0.111, -5.129e-3
-0.110, -5.139e-3
-0.109, -5.145e-3
-0.108, -5.154e-3
-0.107, -5.160e-3
-0.106, -5.169e-3
-0.105, -5.175e-3
-0.104, -5.185e-3
-0.103, -5.191e-3
-0.102, -5.200e-3
-0.101, -5.209e-3
-0.100, -5.215e-3
-0.099, -5.221e-3
-0.098, -5.228e-3
-0.097, -5.237e-3
-0.096, -5.246e-3
-0.095, -5.252e-3
-0.094, -5.261e-3
-0.093, -5.267e-3
-0.092, -5.277e-3
-0.091, -5.283e-3
-0.090, -5.292e-3
-0.089, -5.298e-3
-0.088, -5.307e-3
-0.087, -5.313e-3
-0.086, -5.323e-3
-0.085, -5.329e-3
-0.084, -5.338e-3
-0.083, -5.347e-3
-0.082, -5.353e-3
-0.081, -5.363e-3
-0.080, -5.369e-3
-0.079, -5.378e-3
-0.078, -5.384e-3
-0.077, -5.393e-3
-0.076, -5.399e-3
-0.075, -5.409e-3
-0.074, -5.418e-3
-0.073, -5.424e-3
-0.072, -5.430e-3
-0.071, -5.439e-3
-0.070, -5.448e-3
-0.069, -5.458e-3
-0.068, -5.464e-3
-0.067, -5.473e-3
-0.066, -5.479e-3
-0.065, -5.488e-3
-0.064, -5.498e-3
-0.063, -5.504e-3
-0.062, -5.513e-3
-0.061, -5.519e-3
-0.060, -5.528e-3
-0.059, -5.537e-3
-0.058, -5.547e-3
-0.057, -5.553e-3
-0.056, -5.562e-3
-0.055, -5.571e-3
-0.054, -5.577e-3
-0.053, -5.587e-3
-0.052, -5.596e-3
-0.051, -5.602e-3
-0.050, -5.611e-3
-0.049, -5.620e-3
-0.048, -5.626e-3
-0.047, -5.636e-3
-0.046, -5.645e-3
-0.045, -5.651e-3
-0.044, -5.660e-3
-0.043, -5.669e-3
-0.042, -5.675e-3
-0.041, -5.685e-3
-0.040, -5.694e-3
-0.039, -5.703e-3
-0.038, -5.712e-3
-0.037, -5.722e-3
-0.036, -5.731e-3
-0.035, -5.737e-3
-0.034, -5.746e-3
-0.033, -5.755e-3
-0.032, -5.764e-3
-0.031, -5.774e-3
-0.030, -5.780e-3
-0.029, -5.789e-3
-0.028, -5.798e-3
-0.027, -5.807e-3
-0.026, -5.817e-3
-0.025, -5.826e-3
-0.024, -5.832e-3
-0.023, -5.844e-3
-0.022, -5.850e-3
-0.021, -5.860e-3
-0.020, -5.869e-3
-0.019, -5.878e-3
-0.018, -5.887e-3
-0.017, -5.896e-3
-0.016, -5.903e-3
-0.015, -5.912e-3
-0.014, -5.921e-3
-0.013, -5.930e-3
-0.012, -5.939e-3
-0.011, -5.945e-3
-0.010, -5.955e-3
-0.009, -5.964e-3
-0.008, -5.973e-3
-0.007, -5.982e-3
-0.006, -5.992e-3
-0.005, -6.001e-3
-0.004, -6.010e-3
-0.003, -6.019e-3
-0.002, -6.028e-3
-0.001, -6.038e-3
-0.000, -6.050e-3
0.001, -6.059e-3
0.002, -6.065e-3
0.003, -6.074e-3
0.004, -6.084e-3
0.005, -6.093e-3
0.006, -6.102e-3
0.007, -6.111e-3
0.008, -6.117e-3
0.009, -6.127e-3
0.010, -6.136e-3
0.011, -6.145e-3
0.012, -6.154e-3
0.013, -6.163e-3
0.014, -6.173e-3
0.015, -6.182e-3
0.016, -6.188e-3
0.017, -6.200e-3
0.018, -6.206e-3
0.019, -6.215e-3
0.020, -6.225e-3
0.021, -6.234e-3
0.022, -6.243e-3
0.023, -6.252e-3
0.024, -6.262e-3
0.025, -6.271e-3
0.026, -6.280e-3
0.027, -6.289e-3
0.028, -6.298e-3
0.029, -6.308e-3
0.030, -6.317e-3
0.031, -6.326e-3
0.032, -6.335e-3
0.033, -6.344e-3
0.034, -6.354e-3
0.035, -6.363e-3
0.036, -6.372e-3
0.037, -6.378e-3
0.038, -6.387e-3
0.039, -6.400e-3
0.040, -6.406e-3
0.041, -6.415e-3
0.042, -6.424e-3
0.043, -6.433e-3
0.044, -6.443e-3
0.045, -6.452e-3
0.046, -6.461e-3
0.047, -6.470e-3
0.048, -6.479e-3
0.049, -6.489e-3
0.050, -6.498e-3
0.051, -6.507e-3
0.052, -6.516e-3
0.053, -6.525e-3
0.054, -6.535e-3
0.055, -6.544e-3
0.056, -6.553e-3
0.057, -6.562e-3
0.058, -6.571e-3
0.059, -6.581e-3
0.060, -6.590e-3
0.061, -6.599e-3
0.062, -6.608e-3
0.063, -6.617e-3
0.064, -6.627e-3
0.065, -6.636e-3
0.066, -6.645e-3
0.067, -6.651e-3
0.068, -6.663e-3
0.069, -6.670e-3
0.070, -6.682e-3
0.071, -6.691e-3
0.072, -6.697e-3
0.073, -6.709e-3
0.074, -6.719e-3
0.075, -6.728e-3
0.076, -6.737e-3
0.077, -6.746e-3
0.078, -6.755e-3
0.079, -6.762e-3
0.080, -6.771e-3
0.081, -6.780e-3
0.082, -6.789e-3
0.083, -6.802e-3
0.084, -6.811e-3
0.085, -6.817e-3
0.086, -6.826e-3
0.087, -6.835e-3
0.088, -6.844e-3
0.089, -6.854e-3
0.090, -6.863e-3
0.091, -6.872e-3
0.092, -6.881e-3
0.093, -6.890e-3
0.094, -6.900e-3
0.095, -6.909e-3
0.096, -6.918e-3
0.097, -6.927e-3
0.098, -6.937e-3
0.099, -6.946e-3
0.100, -6.958e-3
0.101, -6.964e-3
0.102, -6.976e-3
0.103, -6.986e-3
0.104, -6.992e-3
0.105, -7.004e-3
0.106, -7.010e-3
0.107, -7.022e-3
0.108, -7.029e-3
0.109, -7.041e-3
0.110, -7.047e-3
0.111, -7.056e-3
0.112, -7.065e-3
0.113, -7.075e-3
0.114, -7.084e-3
0.115, -7.093e-3
0.116, -7.102e-3
0.117, -7.111e-3
0.118, -7.121e-3
0.119, -7.130e-3
0.120, -7.139e-3
0.121, -7.148e-3
0.122, -7.157e-3
0.123, -7.167e-3
0.124, -7.176e-3
0.125, -7.185e-3
0.126, -7.194e-3
0.127, -7.200e-3
0.128, -7.210e-3
0.129, -7.219e-3
0.130, -7.228e-3
0.131, -7.237e-3
0.132, -7.246e-3
0.133, -7.256e-3
0.134, -7.265e-3
0.135, -7.274e-3
0.136, -7.280e-3
0.137, -7.292e-3
0.138, -7.299e-3
0.139, -7.308e-3
0.140, -7.317e-3
0.141, -7.326e-3
0.142, -7.335e-3
0.143, -7.345e-3
0.144, -7.351e-3
0.145, -7.363e-3
0.146, -7.369e-3
0.147, -7.378e-3
0.148, -7.388e-3
0.149, -7.397e-3
0.150, -7.406e-3
0.151, -7.415e-3
0.152, -7.424e-3
0.153, -7.434e-3
0.154, -7.443e-3
0.155, -7.449e-3
0.156, -7.461e-3
0.157, -7.467e-3
0.158, -7.477e-3
0.159, -7.486e-3
0.160, -7.495e-3
0.161, -7.504e-3
0.162, -7.513e-3
0.163, -7.519e-3
0.164, -7.529e-3
0.165, -7.538e-3
0.166, -7.547e-3
0.167, -7.556e-3
0.168, -7.562e-3
0.169, -7.572e-3
0.170, -7.581e-3
0.171, -7.590e-3
0.172, -7.599e-3
0.173, -7.608e-3
0.174, -7.615e-3
0.175, -7.624e-3
0.176, -7.633e-3
0.177, -7.642e-3
0.178, -7.648e-3
0.179, -7.658e-3
0.180, -7.667e-3
0.181, -7.676e-3
0.182, -7.685e-3
0.183, -7.691e-3
0.184, -7.700e-3
0.185, -7.710e-3
0.186, -7.719e-3
0.187, -7.728e-3
0.188, -7.737e-3
0.189, -7.743e-3
0.190, -7.753e-3
0.191, -7.762e-3
0.192, -7.768e-3
0.193, -7.777e-3
0.194, -7.786e-3
0.195, -7.793e-3
0.196, -7.802e-3
0.197, -7.811e-3
0.198, -7.820e-3
0.199, -7.829e-3
0.200, -7.835e-3
0.201, -7.845e-3
0.202, -7.854e-3
0.203, -7.860e-3
0.204, -7.866e-3
0.205, -7.875e-3
0.206, -7.882e-3
0.207, -7.891e-3
0.208, -7.900e-3
0.209, -7.909e-3
0.210, -7.915e-3
0.211, -7.924e-3
0.212, -7.934e-3
0.213, -7.940e-3
0.214, -7.949e-3
0.215, -7.958e-3
0.216, -7.967e-3
0.217, -7.977e-3
0.218, -7.983e-3
0.219, -7.992e-3
0.220, -8.001e-3
0.221, -8.007e-3
0.222, -8.017e-3
0.223, -8.023e-3
0.224, -8.032e-3
0.225, -8.041e-3
0.226, -8.047e-3
0.227, -8.056e-3
0.228, -8.066e-3
0.229, -8.072e-3
0.230, -8.081e-3
0.231, -8.090e-3
0.232, -8.096e-3
0.233, -8.105e-3
0.234, -8.115e-3
0.235, -8.124e-3
0.236, -8.130e-3
0.237, -8.139e-3
0.238, -8.148e-3
0.239, -8.158e-3
0.240, -8.164e-3
0.241, -8.173e-3
0.242, -8.179e-3
0.243, -8.188e-3
0.244, -8.198e-3
0.245, -8.204e-3
0.246, -8.213e-3
0.247, -8.219e-3
0.248, -8.228e-3
0.249, -8.237e-3
0.250, -8.244e-3
0.251, -8.253e-3
0.252, -8.262e-3
0.253, -8.268e-3
0.254, -8.277e-3
0.255, -8.287e-3
0.256, -8.296e-3
0.257, -8.305e-3
0.258, -8.311e-3
0.259, -8.320e-3
0.260, -8.329e-3
0.261, -8.336e-3
0.262, -8.345e-3
0.263, -8.354e-3
0.264, -8.360e-3
0.265, -8.369e-3
0.266, -8.379e-3
0.267, -8.385e-3
0.268, -8.394e-3
0.269, -8.403e-3
0.270, -8.409e-3
0.271, -8.418e-3
0.272, -8.425e-3
0.273, -8.434e-3
0.274, -8.443e-3
0.275, -8.452e-3
0.276, -8.461e-3
0.277, -8.468e-3
0.278, -8.477e-3
0.279, -8.486e-3
0.280, -8.492e-3
0.281, -8.501e-3
0.282, -8.510e-3
0.283, -8.517e-3
0.284, -8.526e-3
0.285, -8.535e-3
0.286, -8.523e-3
0.287, -8.532e-3
0.288, -8.541e-3
0.289, -8.553e-3
0.290, -8.560e-3
0.291, -8.569e-3
0.292, -8.578e-3
0.293, -8.587e-3
0.294, -8.596e-3
0.295, -8.606e-3
0.296, -8.612e-3
0.297, -8.624e-3
0.298, -8.630e-3
0.299, -8.639e-3
0.300, -8.649e-3
0.301, -8.658e-3
0.302, -8.667e-3
0.303, -8.676e-3
0.304, -8.682e-3
0.305, -8.692e-3
0.306, -8.701e-3
0.307, -8.710e-3
0.308, -8.719e-3
0.309, -8.725e-3
0.310, -8.734e-3
0.311, -8.744e-3
0.312, -8.750e-3
0.313, -8.759e-3
0.314, -8.768e-3
0.315, -8.774e-3
0.316, -8.784e-3
0.317, -8.793e-3
0.318, -8.802e-3
0.319, -8.808e-3
0.320, -8.817e-3
0.321, -8.827e-3
0.322, -8.833e-3
0.323, -8.842e-3
0.324, -8.851e-3
0.325, -8.857e-3
0.326, -8.866e-3
0.327, -8.876e-3
0.328, -8.882e-3
0.329, -8.891e-3
0.330, -8.900e-3
0.331, -8.906e-3
0.332, -8.915e-3
0.333, -8.922e-3
0.334, -8.931e-3
0.335, -8.940e-3
0.336, -8.946e-3
0.337, -8.955e-3
0.338, -8.965e-3
0.339, -8.974e-3
0.340, -8.980e-3
0.341, -8.989e-3
0.342, -8.995e-3
0.343, -9.004e-3
0.344, -9.011e-3
0.345, -9.020e-3
0.346, -9.029e-3
0.347, -9.035e-3
0.348, -9.044e-3
0.349, -9.050e-3
0.350, -9.060e-3
0.351, -9.069e-3
0.352, -9.075e-3
0.353, -9.084e-3
0.354, -9.093e-3
0.355, -9.100e-3
0.356, -9.109e-3
0.357, -9.115e-3
0.358, -9.124e-3
0.359, -9.133e-3
0.360, -9.139e-3
0.361, -9.149e-3
0.362, -9.155e-3
0.363, -9.164e-3
0.364, -9.170e-3
0.365, -9.179e-3
0.366, -9.185e-3
0.367, -9.192e-3
0.368, -9.201e-3
0.369, -9.210e-3
0.370, -9.216e-3
0.371, -9.222e-3
0.372, -9.232e-3
0.373, -9.238e-3
0.374, -9.247e-3
0.375, -9.253e-3
0.376, -9.259e-3
0.377, -9.268e-3
0.378, -9.278e-3
0.379, -9.284e-3
0.380, -9.293e-3
0.381, -9.299e-3
0.382, -9.308e-3
0.383, -9.314e-3
0.384, -9.324e-3
0.385, -9.330e-3
0.386, -9.336e-3
0.387, -9.345e-3
0.388, -9.354e-3
0.389, -9.360e-3
0.390, -9.370e-3
0.391, -9.376e-3
0.392, -9.382e-3
0.393, -9.391e-3
0.394, -9.400e-3
0.395, -9.406e-3
0.396, -9.416e-3
0.397, -9.422e-3
0.398, -9.431e-3
0.399, -9.437e-3
0.400, -9.443e-3
0.401, -9.452e-3
0.402, -9.459e-3
0.403, -9.471e-3
0.404, -9.495e-3
0.405, -9.498e-3
0.406, -9.505e-3
0.407, -9.511e-3
0.408, -9.517e-3
0.409, -9.526e-3
0.410, -9.538e-3
0.411, -9.544e-3
0.412, -9.551e-3
0.413, -9.557e-3
0.414, -9.566e-3
0.415, -9.572e-3
0.416, -9.581e-3
0.417, -9.590e-3
0.418, -9.597e-3
0.419, -9.603e-3
0.420, -9.612e-3
0.421, -9.618e-3
0.422, -9.627e-3
0.423, -9.637e-3
0.424, -9.643e-3
0.425, -9.655e-3
0.426, -9.661e-3
0.427, -9.670e-3
0.428, -9.679e-3
0.429, -9.689e-3
0.430, -9.698e-3
0.431, -9.707e-3
0.432, -9.713e-3
0.433, -9.722e-3
0.434, -9.732e-3
0.435, -9.741e-3
0.436, -9.750e-3
0.437, -9.756e-3
0.438, -9.765e-3
0.439, -9.775e-3
0.440, -9.781e-3
0.441, -9.790e-3
0.442, -9.799e-3
0.443, -9.805e-3
0.444, -9.814e-3
0.445, -9.824e-3
0.446, -9.833e-3
0.447, -9.842e-3
0.448, -9.848e-3
0.449, -9.857e-3
0.450, -9.867e-3
0.451, -9.873e-3
0.452, -9.882e-3
0.453, -9.891e-3
0.454, -9.900e-3
0.455, -9.910e-3
0.456, -9.916e-3
0.457, -9.925e-3
0.458, -9.934e-3
0.459, -9.940e-3
0.460, -9.949e-3
0.461, -9.959e-3
0.462, -9.965e-3
0.463, -9.974e-3
0.464, -9.983e-3
0.465, -9.989e-3
0.466, -9.999e-3
0.467, -1.001e-2
0.468, -1.002e-2
0.469, -1.002e-2
0.470, -1.003e-2
0.471, -1.004e-2
0.472, -1.005e-2
0.473, -1.005e-2
0.474, -1.006e-2
0.475, -1.007e-2
0.476, -1.008e-2
0.477, -1.008e-2
0.478, -1.009e-2
0.479, -1.010e-2
0.480, -1.011e-2
0.481, -1.012e-2
0.482, -1.012e-2
0.483, -1.013e-2
0.484, -1.014e-2
0.485, -1.014e-2
0.486, -1.015e-2
0.487, -1.016e-2
0.488, -1.016e-2
0.489, -1.017e-2
0.490, -1.018e-2
0.491, -1.018e-2
0.492, -1.019e-2
0.493, -1.019e-2
0.494, -1.020e-2
0.495, -1.021e-2
0.496, -1.020e-2
0.497, -1.020e-2
0.498, -1.021e-2
0.499, -1.021e-2
0.500, -1.022e-2
0.501, -1.023e-2
0.502, -1.023e-2
0.503, -1.024e-2
0.504, -1.024e-2
0.505, -1.025e-2
0.506, -1.025e-2
0.507, -1.026e-2
0.508, -1.027e-2
0.509, -1.027e-2
0.510, -1.027e-2
0.511, -1.028e-2
0.512, -1.029e-2
0.513, -1.029e-2
0.514, -1.029e-2
0.515, -1.030e-2
0.516, -1.030e-2
0.517, -1.031e-2
0.518, -1.031e-2
0.519, -1.032e-2
0.520, -1.032e-2
0.521, -1.032e-2
0.522, -1.033e-2
0.523, -1.033e-2
0.524, -1.034e-2
0.525, -1.034e-2
0.526, -1.034e-2
0.527, -1.034e-2
0.528, -1.035e-2
0.529, -1.035e-2
0.530, -1.035e-2
0.531, -1.035e-2
0.532, -1.036e-2
0.533, -1.036e-2
0.534, -1.036e-2
0.535, -1.037e-2
0.536, -1.037e-2
0.537, -1.038e-2
0.538, -1.038e-2
0.539, -1.038e-2
0.540, -1.038e-2
0.541, -1.038e-2
0.542, -1.039e-2
0.543, -1.039e-2
0.544, -1.039e-2
0.545, -1.039e-2
0.546, -1.039e-2
0.547, -1.039e-2
0.548, -1.039e-2
0.549, -1.039e-2
0.550, -1.040e-2
0.551, -1.040e-2
0.552, -1.040e-2
0.553, -1.040e-2
0.554, -1.040e-2
0.555, -1.040e-2
0.556, -1.040e-2
0.557, -1.040e-2
0.558, -1.040e-2
0.559, -1.040e-2
0.560, -1.040e-2
0.561, -1.040e-2
0.562, -1.040e-2
0.563, -1.041e-2
0.564, -1.041e-2
0.565, -1.040e-2
0.566, -1.041e-2
0.567, -1.041e-2
0.568, -1.041e-2
0.569, -1.041e-2
0.570, -1.041e-2
0.571, -1.041e-2
0.572, -1.041e-2
0.573, -1.041e-2
0.574, -1.041e-2
0.575, -1.041e-2
0.576, -1.041e-2
0.577, -1.041e-2
0.578, -1.041e-2
0.579, -1.040e-2
0.580, -1.041e-2
0.581, -1.040e-2
0.582, -1.041e-2
0.583, -1.041e-2
0.584, -1.040e-2
0.585, -1.040e-2
0.586, -1.040e-2
0.587, -1.040e-2
0.588, -1.041e-2
0.589, -1.041e-2
0.590, -1.041e-2
0.591, -1.041e-2
0.592, -1.041e-2
0.593, -1.041e-2
0.594, -1.041e-2
0.595, -1.041e-2
0.596, -1.041e-2
0.597, -1.041e-2
0.598, -1.041e-2
0.599, -1.041e-2
0.600, -1.041e-2
0.601, -1.041e-2
0.602, -1.041e-2
0.603, -1.041e-2
0.604, -1.041e-2
0.605, -1.041e-2
0.606, -1.041e-2
0.607, -1.041e-2
0.608, -1.041e-2
0.609, -1.041e-2
0.610, -1.041e-2
0.611, -1.040e-2
0.612, -1.040e-2
0.613, -1.040e-2
0.614, -1.040e-2
0.615, -1.040e-2
0.616, -1.040e-2
0.617, -1.040e-2
0.618, -1.040e-2
0.619, -1.040e-2
0.620, -1.040e-2
0.621, -1.040e-2
0.622, -1.040e-2
0.623, -1.040e-2
0.624, -1.039e-2
0.625, -1.039e-2
0.626, -1.039e-2
0.627, -1.039e-2
0.628, -1.039e-2
0.629, -1.039e-2
0.630, -1.039e-2
0.631, -1.039e-2
0.632, -1.039e-2
0.633, -1.039e-2
0.634, -1.039e-2
0.635, -1.039e-2
0.636, -1.039e-2
0.637, -1.039e-2
0.638, -1.039e-2
0.639, -1.039e-2
0.640, -1.039e-2
0.641, -1.039e-2
0.642, -1.039e-2
0.643, -1.039e-2
0.644, -1.039e-2
0.645, -1.039e-2
0.646, -1.039e-2
0.647, -1.039e-2
0.648, -1.039e-2
0.649, -1.039e-2
0.650, -1.039e-2
0.651, -1.039e-2
0.652, -1.039e-2
0.653, -1.039e-2
0.654, -1.039e-2
0.655, -1.040e-2
0.656, -1.039e-2
0.657, -1.040e-2
0.658, -1.040e-2
0.659, -1.040e-2
0.660, -1.040e-2
0.661, -1.040e-2
0.662, -1.040e-2
0.663, -1.040e-2
0.664, -1.040e-2
0.665, -1.040e-2
0.666, -1.040e-2
0.667, -1.040e-2
0.668, -1.040e-2
0.669, -1.040e-2
0.670, -1.040e-2
0.671, -1.040e-2
0.672, -1.040e-2
0.673, -1.038e-2
0.674, -1.037e-2
0.675, -1.037e-2
0.676, -1.038e-2
0.677, -1.038e-2
0.678, -1.038e-2
0.679, -1.038e-2
0.680, -1.038e-2
0.681, -1.038e-2
0.682, -1.038e-2
0.683, -1.038e-2
0.684, -1.038e-2
0.685, -1.038e-2
0.686, -1.039e-2
0.687, -1.039e-2
0.688, -1.039e-2
0.689, -1.039e-2
0.690, -1.039e-2
0.691, -1.039e-2
0.692, -1.039e-2
0.693, -1.039e-2
0.694, -1.039e-2
0.695, -1.039e-2
0.696, -1.039e-2
0.697, -1.039e-2
0.698, -1.039e-2
0.699, -1.039e-2
0.700, -1.039e-2
0.701, -1.039e-2
0.702, -1.039e-2
0.703, -1.040e-2
0.704, -1.040e-2
0.705, -1.040e-2
0.706, -1.040e-2
0.707, -1.040e-2
0.708, -1.040e-2
0.709, -1.040e-2
0.710, -1.040e-2
0.711, -1.040e-2
0.712, -1.040e-2
0.713, -1.041e-2
0.714, -1.041e-2
0.715, -1.041e-2
0.716, -1.041e-2
0.717, -1.041e-2
0.718, -1.041e-2
0.719, -1.041e-2
0.720, -1.041e-2
0.721, -1.042e-2
0.722, -1.041e-2
0.723, -1.042e-2
0.724, -1.042e-2
0.725, -1.042e-2
0.726, -1.042e-2
0.727, -1.042e-2
0.728, -1.042e-2
0.729, -1.042e-2
0.730, -1.042e-2
0.731, -1.042e-2
0.732, -1.043e-2
0.733, -1.043e-2
0.734, -1.043e-2
0.735, -1.043e-2
0.736, -1.043e-2
0.737, -1.043e-2
0.738, -1.043e-2
0.739, -1.043e-2
0.740, -1.043e-2
0.741, -1.043e-2
0.742, -1.043e-2
0.743, -1.044e-2
0.744, -1.044e-2
0.745, -1.044e-2
0.746, -1.044e-2
0.747, -1.044e-2
0.748, -1.044e-2
0.749, -1.044e-2
0.750, -1.044e-2
0.751, -1.045e-2
0.752, -1.045e-2
0.753, -1.045e-2
0.754, -1.045e-2
0.755, -1.045e-2
0.756, -1.045e-2
0.757, -1.045e-2
0.758, -1.046e-2
0.759, -1.046e-2
0.760, -1.046e-2
0.761, -1.046e-2
0.762, -1.046e-2
0.763, -1.046e-2
0.764, -1.047e-2
0.765, -1.047e-2
0.766, -1.047e-2
0.767, -1.047e-2
0.768, -1.047e-2
0.769, -1.048e-2
0.770, -1.048e-2
0.771, -1.048e-2
0.772, -1.048e-2
0.773, -1.048e-2
0.774, -1.048e-2
0.775, -1.049e-2
0.776, -1.049e-2
0.777, -1.049e-2
0.778, -1.049e-2
0.779, -1.049e-2
0.780, -1.049e-2
0.781, -1.050e-2
0.782, -1.050e-2
0.783, -1.050e-2
0.784, -1.050e-2
0.785, -1.050e-2
0.786, -1.050e-2
0.787, -1.051e-2
0.788, -1.051e-2
0.789, -1.051e-2
0.790, -1.051e-2
0.791, -1.051e-2
0.792, -1.052e-2
0.793, -1.052e-2
0.794, -1.052e-2
0.795, -1.052e-2
0.796, -1.052e-2
0.797, -1.053e-2
0.798, -1.053e-2
0.799, -1.053e-2
0.800, -1.045e-2
0.799, -1.025e-2
0.798, -1.010e-2
0.797, -9.968e-3
0.796, -9.842e-3
0.795, -9.725e-3
0.794, -9.615e-3
0.793, -9.508e-3
0.792, -9.403e-3
0.791, -9.305e-3
0.790, -9.207e-3
0.789, -9.115e-3
0.788, -9.023e-3
0.787, -8.931e-3
0.786, -8.845e-3
0.785, -8.759e-3
0.784, -8.676e-3
0.783, -8.590e-3
0.782, -8.514e-3
0.781, -8.434e-3
0.780, -8.354e-3
0.779, -8.280e-3
0.778, -8.204e-3
0.777, -8.130e-3
0.776, -8.056e-3
0.775, -7.986e-3
0.774, -7.915e-3
0.773, -7.845e-3
0.772, -7.777e-3
0.771, -7.710e-3
0.770, -7.642e-3
0.769, -7.575e-3
0.768, -7.510e-3
0.767, -7.446e-3
0.766, -7.381e-3
0.765, -7.320e-3
0.764, -7.256e-3
0.763, -7.194e-3
0.762, -7.133e-3
0.761, -7.075e-3
0.760, -7.016e-3
0.759, -6.955e-3
0.758, -6.900e-3
0.757, -6.841e-3
0.756, -6.783e-3
0.755, -6.728e-3
0.754, -6.673e-3
0.753, -6.617e-3
0.752, -6.565e-3
0.751, -6.510e-3
0.750, -6.458e-3
0.749, -6.403e-3
0.748, -6.350e-3
0.747, -6.301e-3
0.746, -6.249e-3
0.745, -6.197e-3
0.744, -6.148e-3
0.743, -6.096e-3
0.742, -6.047e-3
0.741, -5.998e-3
0.740, -5.949e-3
0.739, -5.903e-3
0.738, -5.853e-3
0.737, -5.804e-3
0.736, -5.758e-3
0.735, -5.709e-3
0.734, -5.666e-3
0.733, -5.620e-3
0.732, -5.574e-3
0.731, -5.528e-3
0.730, -5.485e-3
0.729, -5.439e-3
0.728, -5.396e-3
0.727, -5.350e-3
0.726, -5.310e-3
0.725, -5.267e-3
0.724, -5.224e-3
0.723, -5.182e-3
0.722, -5.139e-3
0.721, -5.096e-3
0.720, -5.059e-3
0.719, -5.016e-3
0.718, -4.976e-3
0.717, -4.933e-3
0.716, -4.893e-3
0.715, -4.856e-3
0.714, -4.816e-3
0.713, -4.777e-3
0.712, -4.737e-3
0.711, -4.700e-3
0.710, -4.660e-3
0.709, -4.623e-3
0.708, -4.583e-3
0.707, -4.546e-3
0.706, -4.510e-3
0.705, -4.473e-3
0.704, -4.436e-3
0.703, -4.399e-3
0.702, -4.362e-3
0.701, -4.325e-3
0.700, -4.289e-3
0.699, -4.255e-3
0.698, -4.218e-3
0.697, -4.181e-3
0.696, -4.148e-3
0.695, -4.114e-3
0.694, -4.077e-3
0.693, -4.043e-3
0.692, -4.009e-3
0.691, -3.976e-3
0.690, -3.942e-3
0.689, -3.908e-3
0.688, -3.874e-3
0.687, -3.841e-3
0.686, -3.810e-3
0.685, -3.776e-3
0.684, -3.743e-3
0.683, -3.712e-3
0.682, -3.678e-3
0.681, -3.647e-3
0.680, -3.614e-3
0.679, -3.583e-3
0.678, -3.552e-3
0.677, -3.522e-3
0.676, -3.491e-3
0.675, -3.460e-3
0.674, -3.430e-3
0.673, -3.399e-3
0.672, -3.368e-3
0.671, -3.338e-3
0.670, -3.307e-3
0.669, -3.279e-3
0.668, -3.249e-3
0.667, -3.218e-3
0.666, -3.187e-3
0.665, -3.160e-3
0.664, -3.129e-3
0.663, -3.101e-3
0.662, -3.071e-3
0.661, -3.043e-3
0.660, -3.015e-3
0.659, -2.985e-3
0.658, -2.957e-3
0.657, -2.929e-3
0.656, -2.902e-3
0.655, -2.874e-3
0.654, -2.847e-3
0.653, -2.819e-3
0.652, -2.791e-3
0.651, -2.764e-3
0.650, -2.736e-3
0.649, -2.709e-3
0.648, -2.681e-3
0.647, -2.656e-3
0.646, -2.629e-3
0.645, -2.601e-3
0.644, -2.574e-3
0.643, -2.549e-3
0.642, -2.521e-3
0.641, -2.497e-3
0.640, -2.472e-3
0.639, -2.445e-3
0.638, -2.420e-3
0.637, -2.393e-3
0.636, -2.368e-3
0.635, -2.343e-3
0.634, -2.316e-3
0.633, -2.291e-3
0.632, -2.267e-3
0.631, -2.239e-3
0.630, -2.218e-3
0.629, -2.193e-3
0.628, -2.165e-3
0.627, -2.141e-3
0.626, -2.119e-3
0.625, -2.095e-3
0.624, -2.070e-3
0.623, -2.046e-3
0.622, -2.021e-3
0.621, -1.997e-3
0.620, -1.972e-3
0.619, -1.948e-3
0.618, -1.926e-3
0.617, -1.902e-3
0.616, -1.880e-3
0.615, -1.856e-3
0.614, -1.831e-3
0.613, -1.810e-3
0.612, -1.785e-3
0.611, -1.764e-3
0.610, -1.739e-3
0.609, -1.714e-3
0.608, -1.693e-3
0.607, -1.668e-3
0.606, -1.647e-3
0.605, -1.622e-3
0.604, -1.601e-3
0.603, -1.579e-3
0.602, -1.555e-3
0.601, -1.533e-3
0.600, -1.509e-3
0.599, -1.487e-3
0.598, -1.466e-3
0.597, -1.444e-3
0.596, -1.420e-3
0.595, -1.398e-3
0.594, -1.374e-3
0.593, -1.352e-3
0.592, -1.330e-3
0.591, -1.308e-3
0.590, -1.287e-3
0.589, -1.264e-3
0.588, -1.242e-3
0.587, -1.221e-3
0.586, -1.199e-3
0.585, -1.178e-3
0.584, -1.156e-3
0.583, -1.134e-3
0.582, -1.112e-3
0.581, -1.091e-3
0.580, -1.069e-3
0.579, -1.048e-3
0.578, -1.027e-3
0.577, -1.005e-3
0.576, -9.842e-4
0.575, -9.624e-4
0.574, -9.416e-4
0.573, -9.207e-4
0.572, -8.992e-4
0.571, -8.787e-4
0.570, -8.569e-4
0.569, -8.357e-4
0.568, -8.152e-4
0.567, -7.940e-4
0.566, -7.734e-4
0.565, -7.526e-4
0.564, -7.314e-4
0.563, -7.099e-4
0.562, -6.890e-4
0.561, -6.685e-4
0.560, -6.482e-4
0.559, -6.268e-4
0.558, -6.068e-4
0.557, -5.853e-4
0.556, -5.645e-4
0.555, -5.442e-4
0.554, -5.231e-4
0.553, -5.031e-4
0.552, -4.832e-4
0.551, -4.617e-4
0.550, -4.418e-4
0.549, -4.212e-4
0.548, -4.003e-4
0.547, -3.804e-4
0.546, -3.595e-4
0.545, -3.390e-4
0.544, -3.181e-4
0.543, -2.972e-4
0.542, -2.776e-4
0.541, -2.574e-4
0.540, -2.365e-4
0.539, -2.169e-4
0.538, -1.960e-4
0.537, -1.760e-4
0.536, -1.567e-4
0.535, -1.359e-4
0.534, -1.159e-4
0.533, -9.443e-5
0.532, -7.406e-5
0.531, -5.363e-5
0.530, -3.310e-5
0.529, -1.257e-5
0.528, 7.063e-6
0.527, 2.860e-5
0.526, 4.867e-5
0.525, 6.898e-5
0.524, 8.920e-5
0.523, 1.082e-4
0.522, 1.289e-4
0.521, 1.491e-4
0.520, 1.691e-4
0.519, 1.904e-4
0.518, 2.108e-4
0.517, 2.314e-4
0.516, 2.532e-4
0.515, 2.729e-4
0.514, 2.942e-4
0.513, 3.152e-4
0.512, 3.360e-4
0.511, 3.569e-4
0.510, 3.768e-4
0.509, 3.974e-4
0.508, 4.176e-4
0.507, 4.373e-4
0.506, 4.584e-4
0.505, 4.793e-4
0.504, 4.996e-4
0.503, 5.204e-4
0.502, 5.404e-4
0.501, 5.606e-4
0.500, 5.815e-4
0.499, 6.048e-4
0.498, 6.254e-4
0.497, 6.456e-4
0.496, 6.662e-4
0.495, 6.870e-4
0.494, 7.057e-4
0.493, 7.272e-4
0.492, 7.481e-4
0.491, 7.677e-4
0.490, 7.886e-4
0.489, 8.088e-4
0.488, 8.288e-4
0.487, 8.499e-4
0.486, 8.699e-4
0.485, 8.904e-4
0.484, 9.110e-4
0.483, 9.306e-4
0.482, 9.512e-4
0.481, 9.718e-4
0.480, 9.923e-4
0.479, 1.013e-3
0.478, 1.033e-3
0.477, 1.053e-3
0.476, 1.073e-3
0.475, 1.093e-3
0.474, 1.113e-3
0.473, 1.133e-3
0.472, 1.153e-3
0.471, 1.173e-3
0.470, 1.193e-3
0.469, 1.213e-3
0.468, 1.233e-3
0.467, 1.253e-3
0.466, 1.273e-3
0.465, 1.294e-3
0.464, 1.315e-3
0.463, 1.336e-3
0.462, 1.355e-3
0.461, 1.376e-3
0.460, 1.396e-3
0.459, 1.415e-3
0.458, 1.435e-3
0.457, 1.455e-3
0.456, 1.474e-3
0.455, 1.494e-3
0.454, 1.514e-3
0.453, 1.533e-3
0.452, 1.552e-3
0.451, 1.571e-3
0.450, 1.591e-3
0.449, 1.610e-3
0.448, 1.629e-3
0.447, 1.648e-3
0.446, 1.667e-3
0.445, 1.686e-3
0.444, 1.705e-3
0.443, 1.723e-3
0.442, 1.743e-3
0.441, 1.762e-3
0.440, 1.780e-3
0.439, 1.800e-3
0.438, 1.817e-3
0.437, 1.836e-3
0.436, 1.855e-3
0.435, 1.873e-3
0.434, 1.892e-3
0.433, 1.910e-3
0.432, 1.927e-3
0.431, 1.947e-3
0.430, 1.964e-3
0.429, 1.982e-3
0.428, 2.001e-3
0.427, 2.018e-3
0.426, 2.036e-3
0.425, 2.054e-3
0.424, 2.070e-3
0.423, 2.088e-3
0.422, 2.106e-3
0.421, 2.123e-3
0.420, 2.141e-3
0.419, 2.156e-3
0.418, 2.174e-3
0.417, 2.190e-3
0.416, 2.207e-3
0.415, 2.224e-3
0.414, 2.241e-3
0.413, 2.257e-3
0.412, 2.273e-3
0.411, 2.289e-3
0.410, 2.308e-3
0.409, 2.326e-3
0.408, 2.341e-3
0.407, 2.358e-3
0.406, 2.373e-3
0.405, 2.389e-3
0.404, 2.406e-3
0.403, 2.422e-3
0.402, 2.439e-3
0.401, 2.455e-3
0.400, 2.471e-3
0.399, 2.487e-3
0.398, 2.503e-3
0.397, 2.519e-3
0.396, 2.536e-3
0.395, 2.552e-3
0.394, 2.568e-3
0.393, 2.584e-3
0.392, 2.599e-3
0.391, 2.617e-3
0.390, 2.633e-3
0.389, 2.649e-3
0.388, 2.665e-3
0.387, 2.681e-3
0.386, 2.697e-3
0.385, 2.714e-3
0.384, 2.730e-3
0.383, 2.746e-3
0.382, 2.762e-3
0.381, 2.778e-3
0.380, 2.795e-3
0.379, 2.810e-3
0.378, 2.826e-3
0.377, 2.843e-3
0.376, 2.858e-3
0.375, 2.875e-3
0.374, 2.890e-3
0.373, 2.906e-3
0.372, 2.922e-3
0.371, 2.937e-3
0.370, 2.953e-3
0.369, 2.962e-3
0.368, 2.980e-3
0.367, 2.998e-3
0.366, 3.014e-3
0.365, 3.023e-3
0.364, 3.038e-3
0.363, 3.053e-3
0.362, 3.069e-3
0.361, 3.084e-3
0.360, 3.099e-3
0.359, 3.115e-3
0.358, 3.130e-3
0.357, 3.146e-3
0.356, 3.161e-3
0.355, 3.176e-3
0.354, 3.195e-3
0.353, 3.210e-3
0.352, 3.225e-3
0.351, 3.241e-3
0.350, 3.256e-3
0.349, 3.271e-3
0.348, 3.287e-3
0.347, 3.302e-3
0.346, 3.317e-3
0.345, 3.333e-3
0.344, 3.348e-3
0.343, 3.363e-3
0.342, 3.379e-3
0.341, 3.394e-3
0.340, 3.409e-3
0.339, 3.425e-3
0.338, 3.440e-3
0.337, 3.455e-3
0.336, 3.471e-3
0.335, 3.486e-3
0.334, 3.501e-3
0.333, 3.517e-3
0.332, 3.532e-3
0.331, 3.547e-3
0.330, 3.563e-3
0.329, 3.578e-3
0.328, 3.593e-3
0.327, 3.609e-3
0.326, 3.624e-3
0.325, 3.639e-3
0.324, 3.655e-3
0.323, 3.670e-3
0.322, 3.686e-3
0.321, 3.701e-3
0.320, 3.716e-3
0.319, 3.732e-3
0.318, 3.747e-3
0.317, 3.762e-3
0.316, 3.774e-3
0.315, 3.790e-3
0.314, 3.805e-3
0.313, 3.821e-3
0.312, 3.836e-3
0.311, 3.851e-3
0.310, 3.863e-3
0.309, 3.879e-3
0.308, 3.894e-3
0.307, 3.909e-3
0.306, 3.925e-3
0.305, 3.940e-3
0.304, 3.956e-3
0.303, 3.971e-3
0.302, 3.983e-3
0.301, 4.002e-3
0.300, 4.014e-3
0.299, 4.029e-3
0.298, 4.044e-3
0.297, 4.060e-3
0.296, 4.072e-3
0.295, 4.087e-3
0.294, 4.103e-3
0.293, 4.118e-3
0.292, 4.133e-3
0.291, 4.146e-3
0.290, 4.161e-3
0.289, 4.173e-3
0.288, 4.189e-3
0.287, 4.204e-3
0.286, 4.219e-3
0.285, 4.235e-3
0.284, 4.247e-3
0.283, 4.262e-3
0.282, 4.278e-3
0.281, 4.290e-3
0.280, 4.305e-3
0.279, 4.321e-3
0.278, 4.336e-3
0.277, 4.348e-3
0.276, 4.361e-3
0.275, 4.376e-3
0.274, 4.391e-3
0.273, 4.403e-3
0.272, 4.419e-3
0.271, 4.431e-3
0.270, 4.443e-3
0.269, 4.462e-3
0.268, 4.474e-3
0.267, 4.486e-3
0.266, 4.502e-3
0.265, 4.517e-3
0.264, 4.529e-3
0.263, 4.545e-3
0.262, 4.557e-3
0.261, 4.572e-3
0.260, 4.584e-3
0.259, 4.597e-3
0.258, 4.612e-3
0.257, 4.624e-3
0.256, 4.640e-3
0.255, 4.655e-3
0.254, 4.667e-3
0.253, 4.683e-3
0.252, 4.695e-3
0.251, 4.707e-3
0.250, 4.723e-3
0.249, 4.738e-3
0.248, 4.750e-3
0.247, 4.766e-3
0.246, 4.778e-3
0.245, 4.790e-3
0.244, 4.805e-3
0.243, 4.818e-3
0.242, 4.833e-3
0.241, 4.845e-3
0.240, 4.858e-3
0.239, 4.873e-3
0.238, 4.885e-3
0.237, 4.897e-3
0.236, 4.913e-3
0.235, 4.925e-3
0.234, 4.940e-3
0.233, 4.950e-3
0.232, 4.965e-3
0.231, 4.977e-3
0.230, 4.989e-3
0.229, 5.005e-3
0.228, 5.017e-3
0.227, 5.029e-3
0.226, 5.042e-3
0.225, 5.054e-3
0.224, 5.069e-3
0.223, 5.082e-3
0.222, 5.094e-3
0.221, 5.106e-3
0.220, 5.118e-3
0.219, 5.131e-3
0.218, 5.146e-3
0.217, 5.158e-3
0.216, 5.171e-3
0.215, 5.183e-3
0.214, 5.195e-3
0.213, 5.207e-3
0.212, 5.220e-3
0.211, 5.232e-3
0.210, 5.247e-3
0.209, 5.259e-3
0.208, 5.272e-3
0.207, 5.284e-3
0.206, 5.296e-3
0.205, 5.309e-3
0.204, 5.321e-3
0.203, 5.333e-3
0.202, 5.345e-3
0.201, 5.358e-3
0.200, 5.370e-3
0.199, 5.385e-3
0.198, 5.398e-3
0.197, 5.410e-3
0.196, 5.422e-3
0.195, 5.431e-3
0.194, 5.447e-3
0.193, 5.459e-3
0.192, 5.471e-3
0.191, 5.483e-3
0.190, 5.496e-3
0.189, 5.508e-3
0.188, 5.520e-3
0.187, 5.533e-3
0.186, 5.545e-3
0.185, 5.557e-3
0.184, 5.569e-3
0.183, 5.582e-3
0.182, 5.594e-3
0.181, 5.606e-3
0.180, 5.618e-3
0.179, 5.631e-3
0.178, 5.643e-3
0.177, 5.655e-3
0.176, 5.668e-3
0.175, 5.680e-3
0.174, 5.692e-3
0.173, 5.704e-3
0.172, 5.717e-3
0.171, 5.729e-3
0.170, 5.741e-3
0.169, 5.753e-3
0.168, 5.766e-3
0.167, 5.778e-3
0.166, 5.781e-3
0.165, 5.781e-3
0.164, 5.793e-3
0.163, 5.806e-3
0.162, 5.818e-3
0.161, 5.830e-3
0.160, 5.846e-3
0.159, 5.855e-3
0.158, 5.867e-3
0.157, 5.879e-3
0.156, 5.892e-3
0.155, 5.904e-3
0.154, 5.916e-3
0.153, 5.928e-3
0.152, 5.941e-3
0.151, 5.953e-3
0.150, 5.962e-3
0.149, 5.974e-3
0.148, 5.987e-3
0.147, 5.999e-3
0.146, 6.011e-3
0.145, 6.023e-3
0.144, 6.036e-3
0.143, 6.045e-3
0.142, 6.057e-3
0.141, 6.069e-3
0.140, 6.082e-3
0.139, 6.091e-3
0.138, 6.103e-3
0.137, 6.112e-3
0.136, 6.125e-3
0.135, 6.137e-3
0.134, 6.146e-3
0.133, 6.158e-3
0.132, 6.171e-3
0.131, 6.180e-3
0.130, 6.195e-3
0.129, 6.204e-3
0.128, 6.217e-3
0.127, 6.229e-3
0.126, 6.238e-3
0.125, 6.251e-3
0.124, 6.263e-3
0.123, 6.272e-3
0.122, 6.284e-3
0.121, 6.297e-3
0.120, 6.309e-3
0.119, 6.318e-3
0.118, 6.330e-3
0.117, 6.343e-3
0.116, 6.352e-3
0.115, 6.364e-3
0.114, 6.373e-3
0.113, 6.386e-3
0.112, 6.395e-3
0.111, 6.407e-3
0.110, 6.416e-3
0.109, 6.428e-3
0.108, 6.441e-3
0.107, 6.450e-3
0.106, 6.462e-3
0.105, 6.471e-3
0.104, 6.481e-3
0.103, 6.493e-3
0.102, 6.502e-3
0.101, 6.511e-3
0.100, 6.521e-3
0.099, 6.527e-3
0.098, 6.539e-3
0.097, 6.548e-3
0.096, 6.560e-3
0.095, 6.570e-3
0.094, 6.579e-3
0.093, 6.591e-3
0.092, 6.600e-3
0.091, 6.609e-3
0.090, 6.622e-3
0.089, 6.631e-3
0.088, 6.643e-3
0.087, 6.652e-3
0.086, 6.662e-3
0.085, 6.674e-3
0.084, 6.683e-3
0.083, 6.692e-3
0.082, 6.705e-3
0.081, 6.714e-3
0.080, 6.723e-3
0.079, 6.735e-3
0.078, 6.744e-3
0.077, 6.754e-3
0.076, 6.763e-3
0.075, 6.775e-3
0.074, 6.784e-3
0.073, 6.794e-3
0.072, 6.803e-3
0.071, 6.812e-3
0.070, 6.824e-3
0.069, 6.833e-3
0.068, 6.843e-3
0.067, 6.852e-3
0.066, 6.864e-3
0.065, 6.873e-3
0.064, 6.883e-3
0.063, 6.892e-3
0.062, 6.901e-3
0.061, 6.910e-3
0.060, 6.919e-3
0.059, 6.929e-3
0.058, 6.938e-3
0.057, 6.947e-3
0.056, 6.956e-3
0.055, 6.968e-3
0.054, 6.975e-3
0.053, 6.987e-3
0.052, 6.996e-3
0.051, 7.005e-3
0.050, 7.014e-3
0.049, 7.024e-3
0.048, 7.033e-3
0.047, 7.042e-3
0.046, 7.051e-3
0.045, 7.061e-3
0.044, 7.070e-3
0.043, 7.079e-3
0.042, 7.088e-3
0.041, 7.097e-3
0.040, 7.103e-3
0.039, 7.113e-3
0.038, 7.122e-3
0.037, 7.131e-3
0.036, 7.140e-3
0.035, 7.149e-3
0.034, 7.159e-3
0.033, 7.168e-3
0.032, 7.174e-3
0.031, 7.186e-3
0.030, 7.192e-3
0.029, 7.202e-3
0.028, 7.211e-3
0.027, 7.217e-3
0.026, 7.226e-3
0.025, 7.235e-3
0.024, 7.245e-3
0.023, 7.254e-3
0.022, 7.260e-3
0.021, 7.269e-3
0.020, 7.278e-3
0.019, 7.288e-3
0.018, 7.294e-3
0.017, 7.303e-3
0.016, 7.309e-3
0.015, 7.318e-3
0.014, 7.327e-3
0.013, 7.334e-3
0.012, 7.343e-3
0.011, 7.349e-3
0.010, 7.358e-3
0.009, 7.367e-3
0.008, 7.373e-3
0.007, 7.383e-3
0.006, 7.392e-3
0.005, 7.398e-3
0.004, 7.407e-3
0.003, 7.413e-3
0.002, 7.423e-3
0.001, 7.429e-3
0.000, 7.441e-3
-0.001, 7.450e-3
-0.002, 7.456e-3
-0.003, 7.462e-3
-0.004, 7.472e-3
-0.005, 7.478e-3
-0.006, 7.487e-3
-0.007, 7.493e-3
-0.008, 7.499e-3
-0.009, 7.508e-3
-0.010, 7.515e-3
-0.011, 7.521e-3
-0.012, 7.527e-3
-0.013, 7.536e-3
-0.014, 7.545e-3
-0.015, 7.551e-3
-0.016, 7.558e-3
-0.017, 7.567e-3
-0.018, 7.573e-3
-0.019, 7.579e-3
-0.020, 7.588e-3
-0.021, 7.594e-3
-0.022, 7.601e-3
-0.023, 7.607e-3
-0.024, 7.616e-3
-0.025, 7.622e-3
-0.026, 7.628e-3
-0.027, 7.634e-3
-0.028, 7.643e-3
-0.029, 7.647e-3
-0.030, 7.656e-3
-0.031, 7.662e-3
-0.032, 7.668e-3
-0.033, 7.677e-3
-0.034, 7.683e-3
-0.035, 7.689e-3
-0.036, 7.696e-3
-0.037, 7.702e-3
-0.038, 7.708e-3
-0.039, 7.714e-3
-0.040, 7.720e-3
-0.041, 7.726e-3
-0.042, 7.732e-3
-0.043, 7.739e-3
-0.044, 7.745e-3
-0.045, 7.751e-3
-0.046, 7.757e-3
-0.047, 7.763e-3
-0.048, 7.769e-3
-0.049, 7.775e-3
-0.050, 7.782e-3
-0.051, 7.788e-3
-0.052, 7.794e-3
-0.053, 7.800e-3
-0.054, 7.806e-3
-0.055, 7.812e-3
-0.056, 7.815e-3
-0.057, 7.824e-3
-0.058, 7.828e-3
-0.059, 7.834e-3
-0.060, 7.840e-3
-0.061, 7.846e-3
-0.062, 7.852e-3
-0.063, 7.855e-3
-0.064, 7.861e-3
-0.065, 7.867e-3
-0.066, 7.874e-3
-0.067, 7.877e-3
-0.068, 7.883e-3
-0.069, 7.889e-3
-0.070, 7.895e-3
-0.071, 7.898e-3
-0.072, 7.904e-3
-0.073, 7.910e-3
-0.074, 7.913e-3
-0.075, 7.920e-3
-0.076, 7.926e-3
-0.077, 7.929e-3
-0.078, 7.935e-3
-0.079, 7.941e-3
-0.080, 7.944e-3
-0.081, 7.950e-3
-0.082, 7.953e-3
-0.083, 7.959e-3
-0.084, 7.966e-3
-0.085, 7.969e-3
-0.086, 7.975e-3
-0.087, 7.978e-3
-0.088, 7.981e-3
-0.089, 7.987e-3
-0.090, 7.990e-3
-0.091, 7.996e-3
-0.092, 7.999e-3
-0.093, 8.002e-3
-0.094, 8.009e-3
-0.095, 8.012e-3
-0.096, 8.018e-3
-0.097, 8.021e-3
-0.098, 8.024e-3
-0.099, 8.030e-3
-0.100, 8.033e-3
-0.101, 8.036e-3
-0.102, 8.042e-3
-0.103, 8.048e-3
-0.104, 8.052e-3
-0.105, 8.055e-3
-0.106, 8.058e-3
-0.107, 8.061e-3
-0.108, 8.067e-3
-0.109, 8.070e-3
-0.110, 8.073e-3
-0.111, 8.076e-3
-0.112, 8.079e-3
-0.113, 8.085e-3
-0.114, 8.088e-3
-0.115, 8.091e-3
-0.116, 8.094e-3
-0.117, 8.098e-3
-0.118, 8.101e-3
-0.119, 8.104e-3
-0.120, 8.107e-3
-0.121, 8.110e-3
-0.122, 8.113e-3
-0.123, 8.116e-3
-0.124, 8.122e-3
-0.125, 8.122e-3
-0.126, 8.128e-3
-0.127, 8.128e-3
-0.128, 8.131e-3
-0.129, 8.137e-3
-0.130, 8.137e-3
-0.131, 8.141e-3
-0.132, 8.144e-3
-0.133, 8.147e-3
-0.134, 8.150e-3
-0.135, 8.153e-3
-0.136, 8.156e-3
-0.137, 8.159e-3
-0.138, 8.159e-3
-0.139, 8.162e-3
-0.140, 8.165e-3
-0.141, 8.168e-3
-0.142, 8.171e-3
-0.143, 8.174e-3
-0.144, 8.174e-3
-0.145, 8.177e-3
-0.146, 8.177e-3
-0.147, 8.180e-3
-0.148, 8.183e-3
-0.149, 8.187e-3
-0.150, 8.190e-3
-0.151, 8.193e-3
-0.152, 8.193e-3
-0.153, 8.196e-3
-0.154, 8.202e-3
-0.155, 8.202e-3
-0.156, 8.205e-3
-0.157, 8.208e-3
-0.158, 8.208e-3
-0.159, 8.211e-3
-0.160, 8.214e-3
-0.161, 8.214e-3
-0.162, 8.217e-3
-0.163, 8.217e-3
-0.164, 8.220e-3
-0.165, 8.220e-3
-0.166, 8.223e-3
-0.167, 8.223e-3
-0.168, 8.226e-3
-0.169, 8.229e-3
-0.170, 8.229e-3
-0.171, 8.229e-3
-0.172, 8.233e-3
-0.173, 8.233e-3
-0.174, 8.236e-3
-0.175, 8.236e-3
-0.176, 8.239e-3
-0.177, 8.239e-3
-0.178, 8.239e-3
-0.179, 8.242e-3
-0.180, 8.245e-3
-0.181, 8.245e-3
-0.182, 8.248e-3
-0.183, 8.248e-3
-0.184, 8.248e-3
-0.185, 8.248e-3
-0.186, 8.251e-3
-0.187, 8.251e-3
-0.188, 8.254e-3
-0.189, 8.254e-3
-0.190, 8.254e-3
-0.191, 8.257e-3
-0.192, 8.257e-3
-0.193, 8.257e-3
-0.194, 8.257e-3
-0.195, 8.260e-3
-0.196, 8.260e-3
-0.197, 8.260e-3
-0.198, 8.263e-3
-0.199, 8.263e-3
-0.200, 8.263e-3
-0.201, 8.263e-3
-0.202, 8.263e-3
-0.203, 8.263e-3
-0.204, 8.266e-3
-0.205, 8.266e-3
-0.206, 8.266e-3
-0.207, 8.269e-3
-0.208, 8.269e-3
-0.209, 8.269e-3
-0.210, 8.269e-3
-0.211, 8.272e-3
-0.212, 8.272e-3
-0.213, 8.272e-3
-0.214, 8.272e-3
-0.215, 8.272e-3
-0.216, 8.272e-3
-0.217, 8.272e-3
-0.218, 8.276e-3
-0.219, 8.276e-3
-0.220, 8.276e-3
-0.221, 8.276e-3
-0.222, 8.276e-3
-0.223, 8.276e-3
-0.224, 8.276e-3
-0.225, 8.279e-3
-0.226, 8.279e-3
-0.227, 8.276e-3
-0.228, 8.279e-3
-0.229, 8.279e-3
-0.230, 8.279e-3
-0.231, 8.279e-3
-0.232, 8.279e-3
-0.233, 8.279e-3
-0.234, 8.279e-3
-0.235, 8.279e-3
-0.236, 8.282e-3
-0.237, 8.282e-3
-0.238, 8.282e-3
-0.239, 8.282e-3
-0.240, 8.282e-3
-0.241, 8.282e-3
-0.242, 8.282e-3
-0.243, 8.282e-3
-0.244, 8.282e-3
-0.245, 8.282e-3
-0.246, 8.282e-3
-0.247, 8.282e-3
-0.248, 8.282e-3
-0.249, 8.282e-3
-0.250, 8.282e-3
-0.251, 8.282e-3
-0.252, 8.285e-3
-0.253, 8.282e-3
-0.254, 8.282e-3
-0.255, 8.282e-3
-0.256, 8.285e-3
-0.257, 8.285e-3
-0.258, 8.285e-3
-0.259, 8.285e-3
-0.260, 8.285e-3
-0.261, 8.285e-3
-0.262, 8.285e-3
-0.263, 8.285e-3
-0.264, 8.285e-3
-0.265, 8.285e-3
-0.266, 8.285e-3
-0.267, 8.285e-3
-0.268, 8.285e-3
-0.269, 8.285e-3
-0.270, 8.285e-3
-0.271, 8.285e-3
-0.272, 8.285e-3
-0.273, 8.288e-3
-0.274, 8.285e-3
-0.275, 8.288e-3
-0.276, 8.288e-3
-0.277, 8.288e-3
-0.278, 8.288e-3
-0.279, 8.288e-3
-0.280, 8.288e-3
-0.281, 8.291e-3
-0.282, 8.288e-3
-0.283, 8.288e-3
-0.284, 8.291e-3
-0.285, 8.291e-3
-0.286, 8.291e-3
-0.287, 8.291e-3
-0.288, 8.291e-3
-0.289, 8.291e-3
-0.290, 8.291e-3
-0.291, 8.294e-3
-0.292, 8.294e-3
-0.293, 8.294e-3
-0.294, 8.294e-3
-0.295, 8.294e-3
-0.296, 8.294e-3
-0.297, 8.297e-3
-0.298, 8.297e-3
-0.299, 8.297e-3
-0.300, 8.297e-3
-0.301, 8.297e-3
-0.302, 8.300e-3
-0.303, 8.300e-3
-0.304, 8.300e-3
-0.305, 8.300e-3
-0.306, 8.303e-3
-0.307, 8.303e-3
-0.308, 8.306e-3
-0.309, 8.306e-3
-0.310, 8.306e-3
-0.311, 8.306e-3
-0.312, 8.309e-3
-0.313, 8.309e-3
-0.314, 8.328e-3
-0.315, 8.340e-3
-0.316, 8.334e-3
-0.317, 8.331e-3
-0.318, 8.328e-3
-0.319, 8.328e-3
-0.320, 8.328e-3
-0.321, 8.328e-3
-0.322, 8.328e-3
-0.323, 8.328e-3
-0.324, 8.331e-3
-0.325, 8.328e-3
-0.326, 8.331e-3
-0.327, 8.331e-3
-0.328, 8.331e-3
-0.329, 8.334e-3
-0.330, 8.334e-3
-0.331, 8.334e-3
-0.332, 8.337e-3
-0.333, 8.337e-3
-0.334, 8.340e-3
-0.335, 8.340e-3
-0.336, 8.340e-3
-0.337, 8.343e-3
-0.338, 8.343e-3
-0.339, 8.346e-3
-0.340, 8.346e-3
-0.341, 8.349e-3
-0.342, 8.349e-3
-0.343, 8.349e-3
-0.344, 8.352e-3
-0.345, 8.352e-3
-0.346, 8.355e-3
-0.347, 8.355e-3
-0.348, 8.358e-3
-0.349, 8.358e-3
-0.350, 8.361e-3
-0.351, 8.361e-3
-0.352, 8.364e-3
-0.353, 8.368e-3
-0.354, 8.368e-3
-0.355, 8.371e-3
-0.356, 8.371e-3
-0.357, 8.374e-3
-0.358, 8.377e-3
-0.359, 8.377e-3
-0.360, 8.380e-3
-0.361, 8.383e-3
-0.362, 8.383e-3
-0.363, 8.386e-3
-0.364, 8.389e-3
-0.365, 8.389e-3
-0.366, 8.392e-3
-0.367, 8.395e-3
-0.368, 8.395e-3
-0.369, 8.398e-3
-0.370, 8.401e-3
-0.371, 8.404e-3
-0.372, 8.404e-3
-0.373, 8.407e-3
-0.374, 8.411e-3
-0.375, 8.414e-3
-0.376, 8.417e-3
-0.377, 8.417e-3
-0.378, 8.420e-3
-0.379, 8.423e-3
-0.380, 8.426e-3
-0.381, 8.429e-3
-0.382, 8.432e-3
-0.383, 8.432e-3
-0.384, 8.435e-3
-0.385, 8.438e-3
-0.386, 8.457e-3
-0.387, 8.460e-3
-0.388, 8.466e-3
-0.389, 8.469e-3
-0.390, 8.472e-3
-0.391, 8.475e-3
-0.392, 8.478e-3
-0.393, 8.481e-3
-0.394, 8.484e-3
-0.395, 8.487e-3
-0.396, 8.490e-3
-0.397, 8.493e-3
-0.398, 8.496e-3
-0.399, 8.499e-3
-0.400, 8.503e-3
-0.401, 8.506e-3
-0.402, 8.509e-3
-0.403, 8.512e-3
-0.404, 8.515e-3
-0.405, 8.518e-3
-0.406, 8.521e-3
-0.407, 8.524e-3
-0.408, 8.527e-3
-0.409, 8.530e-3
-0.410, 8.536e-3
-0.411, 8.536e-3
-0.412, 8.539e-3
-0.413, 8.542e-3
-0.414, 8.546e-3
-0.415, 8.549e-3
-0.416, 8.552e-3
-0.417, 8.555e-3
-0.418, 8.558e-3
-0.419, 8.561e-3
-0.420, 8.570e-3
-0.421, 8.570e-3
-0.422, 8.576e-3
-0.423, 8.592e-3
-0.424, 8.598e-3
-0.425, 8.601e-3
-0.426, 8.604e-3
-0.427, 8.607e-3
-0.428, 8.607e-3
-0.429, 8.613e-3
-0.430, 8.613e-3
-0.431, 8.616e-3
-0.432, 8.616e-3
-0.433, 8.619e-3
-0.434, 8.622e-3
-0.435, 8.625e-3
-0.436, 8.628e-3
-0.437, 8.631e-3
-0.438, 8.634e-3
-0.439, 8.638e-3
-0.440, 8.641e-3
-0.441, 8.647e-3
-0.442, 8.650e-3
-0.443, 8.656e-3
-0.444, 8.659e-3
-0.445, 8.659e-3
-0.446, 8.665e-3
-0.447, 8.668e-3
-0.448, 8.681e-3
-0.449, 8.690e-3
-0.450, 8.696e-3
-0.451, 8.696e-3
-0.452, 8.702e-3
-0.453, 8.705e-3
-0.454, 8.708e-3
-0.455, 8.714e-3
-0.456, 8.717e-3
-0.457, 8.717e-3
-0.458, 8.720e-3
-0.459, 8.723e-3
-0.460, 8.727e-3
-0.461, 8.733e-3
-0.462, 8.742e-3
-0.463, 8.745e-3
-0.464, 8.745e-3
-0.465, 8.748e-3
-0.466, 8.751e-3
-0.467, 8.754e-3
-0.468, 8.769e-3
-0.469, 8.785e-3
-0.470, 8.788e-3
-0.471, 8.794e-3
-0.472, 8.794e-3
-0.473, 8.797e-3
-0.474, 8.797e-3
-0.475, 8.800e-3
-0.476, 8.812e-3
-0.477, 8.816e-3
-0.478, 8.819e-3
-0.479, 8.822e-3
-0.480, 8.831e-3
-0.481, 8.840e-3
-0.482, 8.840e-3
-0.483, 8.843e-3
-0.484, 8.852e-3
-0.485, 8.855e-3
-0.486, 8.862e-3
-0.487, 8.868e-3
-0.488, 8.871e-3
-0.489, 8.871e-3
-0.490, 8.871e-3
-0.491, 8.883e-3
-0.492, 8.883e-3
-0.493, 8.886e-3
-0.494, 8.886e-3
-0.495, 8.889e-3
-0.496, 8.898e-3
-0.497, 8.914e-3
-0.498, 8.935e-3
-0.499, 8.941e-3
-0.500, 8.944e-3
-0.501, 8.947e-3
-0.502, 8.951e-3
-0.503, 8.954e-3
-0.504, 8.954e-3
-0.505, 8.960e-3
-0.506, 8.975e-3
-0.507, 8.981e-3
-0.508, 8.984e-3
-0.509, 8.981e-3
-0.510, 8.984e-3
-0.511, 9.000e-3
-0.512, 9.003e-3
-0.513, 9.003e-3
-0.514, 9.003e-3
-0.515, 9.009e-3
-0.516, 9.024e-3
-0.517, 9.030e-3
-0.518, 9.046e-3
-0.519, 9.049e-3
-0.520, 9.049e-3
-0.521, 9.052e-3
-0.522, 9.055e-3
-0.523, 9.058e-3
-0.524, 9.061e-3
-0.525, 9.058e-3
-0.526, 9.073e-3
-0.527, 9.070e-3
-0.528, 9.089e-3
-0.529, 9.092e-3
-0.530, 9.095e-3
-0.531, 9.098e-3
-0.532, 9.104e-3
-0.533, 9.125e-3
-0.534, 9.128e-3
-0.535, 9.138e-3
-0.536, 9.153e-3
-0.537, 9.165e-3
-0.538, 9.171e-3
-0.539, 9.174e-3
-0.540, 9.187e-3
-0.541, 9.187e-3
-0.542, 9.193e-3
-0.543, 9.193e-3
-0.544, 9.190e-3
-0.545, 9.190e-3
-0.546, 9.211e-3
-0.547, 9.217e-3
-0.548, 9.224e-3
-0.549, 9.224e-3
-0.550, 9.224e-3
-0.551, 9.227e-3
-0.552, 9.254e-3
-0.553, 9.251e-3
-0.554, 9.260e-3
-0.555, 9.279e-3
-0.556, 9.282e-3
-0.557, 9.279e-3
-0.558, 9.276e-3
-0.559, 9.279e-3
-0.560, 9.285e-3
-0.561, 9.294e-3
-0.562, 9.316e-3
-0.563, 9.325e-3
-0.564, 9.325e-3
-0.565, 9.328e-3
-0.566, 9.352e-3
-0.567, 9.346e-3
-0.568, 9.343e-3
-0.569, 9.349e-3
-0.570, 9.377e-3
-0.571, 9.377e-3
-0.572, 9.371e-3
-0.573, 9.365e-3
-0.574, 9.365e-3
-0.575, 9.383e-3
-0.576, 9.389e-3
-0.577, 9.398e-3
-0.578, 9.389e-3
-0.579, 9.398e-3
-0.580, 9.438e-3
-0.581, 9.438e-3
-0.582, 9.432e-3
-0.583, 9.438e-3
-0.584, 9.454e-3
-0.585, 9.469e-3
-0.586, 9.478e-3
-0.587, 9.481e-3
-0.588, 9.475e-3
-0.589, 9.472e-3
-0.590, 9.512e-3
-0.591, 9.512e-3
-0.592, 9.533e-3
-0.593, 9.549e-3
-0.594, 9.561e-3
-0.595, 9.558e-3
-0.596, 9.558e-3
-0.597, 9.567e-3
-0.598, 9.558e-3
-0.599, 9.546e-3
-0.600, 9.546e-3
-0.601, 9.555e-3
-0.602, 9.589e-3
-0.603, 9.613e-3
-0.604, 9.610e-3
-0.605, 9.604e-3
-0.606, 9.619e-3
-0.607, 9.632e-3
-0.608, 9.650e-3
-0.609, 9.696e-3
-0.610, 9.690e-3
-0.611, 9.687e-3
-0.612, 9.711e-3
-0.613, 9.693e-3
-0.614, 9.687e-3
-0.615, 9.721e-3
-0.616, 9.730e-3
-0.617, 9.733e-3
-0.618, 9.739e-3
-0.619, 9.733e-3
-0.620, 9.718e-3
-0.621, 9.730e-3
-0.622, 9.773e-3
-0.623, 9.773e-3
-0.624, 9.764e-3
-0.625, 9.779e-3
-0.626, 9.813e-3
-0.627, 9.816e-3
-0.628, 9.825e-3
-0.629, 9.816e-3
-0.630, 9.819e-3
-0.631, 9.846e-3
-0.632, 9.856e-3
-0.633, 9.868e-3
-0.634, 9.853e-3
-0.635, 9.856e-3
-0.636, 9.859e-3
-0.637, 9.908e-3
-0.638, 9.938e-3
-0.639, 9.917e-3
-0.640, 9.923e-3
-0.641, 9.920e-3
-0.642, 9.929e-3
-0.643, 9.914e-3
-0.644, 9.899e-3
-0.645, 9.911e-3
-0.646, 9.994e-3
-0.647, 1.002e-2
-0.648, 1.003e-2
-0.649, 1.004e-2
-0.650, 1.004e-2
-0.651, 1.005e-2
-0.652, 1.008e-2
-0.653, 1.006e-2
-0.654, 1.007e-2
-0.655, 1.010e-2
-0.656, 1.008e-2
-0.657, 1.010e-2
-0.658, 1.011e-2
-0.659, 1.009e-2
-0.660, 1.009e-2
-0.661, 1.008e-2
-0.662, 1.008e-2
-0.663, 1.010e-2
-0.664, 1.013e-2
-0.665, 1.015e-2
-0.666, 1.014e-2
-0.667, 1.015e-2
-0.668, 1.015e-2
-0.669, 1.013e-2
-0.670, 1.025e-2
-0.671, 1.025e-2
-0.672, 1.025e-2
-0.673, 1.028e-2
-0.674, 1.028e-2
-0.675, 1.026e-2
-0.676, 1.028e-2
-0.677, 1.033e-2
-0.678, 1.036e-2
-0.679, 1.032e-2
-0.680, 1.031e-2
-0.681, 1.028e-2
-0.682, 1.030e-2
-0.683, 1.027e-2
-0.684, 1.031e-2
-0.685, 1.030e-2
-0.686, 1.029e-2
-0.687, 1.036e-2
-0.688, 1.040e-2
-0.689, 1.038e-2
-0.690, 1.047e-2
-0.691, 1.060e-2
-0.692, 1.066e-2
-0.693, 1.063e-2
-0.694, 1.064e-2
-0.695, 1.063e-2
-0.696, 1.065e-2
-0.697, 1.069e-2
-0.698, 1.072e-2
-0.699, 1.070e-2
-0.700, 1.075e-2
-0.701, 1.074e-2
-0.702, 1.075e-2
-0.703, 1.073e-2
-0.704, 1.079e-2
-0.705, 1.078e-2
-0.706, 1.077e-2
-0.707, 1.081e-2
-0.708, 1.082e-2
-0.709, 1.079e-2
-0.710, 1.078e-2
-0.711, 1.085e-2
-0.712, 1.089e-2
-0.713, 1.089e-2
-0.714, 1.099e-2
-0.715, 1.106e-2
-0.716, 1.103e-2
-0.717, 1.099e-2
-0.718, 1.100e-2
-0.719, 1.104e-2
-0.720, 1.102e-2
-0.721, 1.106e-2
-0.722, 1.112e-2
-0.723, 1.106e-2
-0.724, 1.109e-2
-0.725, 1.114e-2
-0.726, 1.113e-2
-0.727, 1.117e-2
-0.728, 1.121e-2
-0.729, 1.122e-2
-0.730, 1.126e-2
-0.731, 1.129e-2
-0.732, 1.125e-2
-0.733, 1.123e-2
-0.734, 1.130e-2
-0.735, 1.133e-2
-0.736, 1.140e-2
-0.737, 1.154e-2
-0.738, 1.146e-2
-0.739, 1.145e-2
-0.740, 1.149e-2
-0.741, 1.154e-2
-0.742, 1.158e-2
-0.743, 1.158e-2
-0.744, 1.157e-2
-0.745, 1.161e-2
-0.746, 1.158e-2
-0.747, 1.162e-2
-0.748, 1.162e-2
-0.749, 1.164e-2
-0.750, 1.169e-2
-0.751, 1.171e-2
-0.752, 1.171e-2
-0.753, 1.173e-2
-0.754, 1.181e-2
-0.755, 1.183e-2
-0.756, 1.191e-2
-0.757, 1.189e-2
-0.758, 1.196e-2
-0.759, 1.195e-2
-0.760, 1.196e-2
-0.761, 1.196e-2
-0.762, 1.203e-2
-0.763, 1.202e-2
-0.764, 1.209e-2
-0.765, 1.210e-2
-0.766, 1.214e-2
-0.767, 1.223e-2
-0.768, 1.224e-2
-0.769, 1.226e-2
-0.770, 1.242e-2
-0.771, 1.245e-2
-0.772, 1.244e-2
-0.773, 1.247e-2
-0.774, 1.252e-2
-0.775, 1.251e-2
-0.776, 1.256e-2
-0.777, 1.253e-2
-0.778, 1.259e-2
-0.779, 1.266e-2
-0.780, 1.265e-2
-0.781, 1.276e-2
-0.782, 1.281e-2
-0.783, 1.284e-2
-0.784, 1.296e-2
-0.785, 1.296e-2
-0.786, 1.306e-2
-0.787, 1.307e-2
-0.788, 1.306e-2
-0.789, 1.327e-2
-0.790, 1.332e-2
-0.791, 1.332e-2
-0.792, 1.333e-2
-0.793, 1.330e-2
-0.794, 1.333e-2
-0.795, 1.341e-2
-0.796, 1.341e-2
-0.797, 1.354e-2
-0.798, 1.364e-2
-0.799, 1.372e-2
