Apr. 28, 2026   11:48:52
Cyclic Voltammetry
File: c:\users\administrator\desktop\2026.4.28\hi 2mol h2so4\0.002\run unsaved.txt
Data Source:  Experiment
Instrument Model:  CHI600E
Header: 
Note: 

Init E (V) = 0
High E (V) = 0.8
Low E (V) = -0.8
Init P/N = N
Scan Rate (V/s) = 0.002
Segment = 3
Sample Interval (V) = 0.001
Quiet Time (sec) = 2
Sensitivity (A/V) = 0.1

Segment 1:

Segment 2:
Ep = 0.744V
ip = -7.465e-5A
Ah = -1.883e-3C

Segment 3:

Potential/V, Current/A

0.000, -6.578e-4
-0.001, -4.761e-4
-0.002, -3.319e-4
-0.003, -2.083e-4
-0.004, -9.812e-5
-0.005, -2.698e-7
-0.006, 8.920e-5
-0.007, 1.712e-4
-0.008, 2.459e-4
-0.009, 3.165e-4
-0.010, 3.814e-4
-0.011, 4.410e-4
-0.012, 4.986e-4
-0.013, 5.517e-4
-0.014, 6.020e-4
-0.015, 6.499e-4
-0.016, 6.944e-4
-0.017, 7.380e-4
-0.018, 7.782e-4
-0.019, 8.174e-4
-0.020, 8.552e-4
-0.021, 8.901e-4
-0.022, 9.242e-4
-0.023, 9.567e-4
-0.024, 9.874e-4
-0.025, 1.018e-3
-0.026, 1.047e-3
-0.027, 1.074e-3
-0.028, 1.101e-3
-0.029, 1.127e-3
-0.030, 1.151e-3
-0.031, 1.175e-3
-0.032, 1.198e-3
-0.033, 1.221e-3
-0.034, 1.242e-3
-0.035, 1.263e-3
-0.036, 1.284e-3
-0.037, 1.303e-3
-0.038, 1.323e-3
-0.039, 1.342e-3
-0.040, 1.360e-3
-0.041, 1.378e-3
-0.042, 1.395e-3
-0.043, 1.411e-3
-0.044, 1.428e-3
-0.045, 1.444e-3
-0.046, 1.460e-3
-0.047, 1.475e-3
-0.048, 1.489e-3
-0.049, 1.504e-3
-0.050, 1.518e-3
-0.051, 1.532e-3
-0.052, 1.546e-3
-0.053, 1.558e-3
-0.054, 1.572e-3
-0.055, 1.584e-3
-0.056, 1.596e-3
-0.057, 1.609e-3
-0.058, 1.621e-3
-0.059, 1.632e-3
-0.060, 1.644e-3
-0.061, 1.654e-3
-0.062, 1.666e-3
-0.063, 1.676e-3
-0.064, 1.687e-3
-0.065, 1.697e-3
-0.066, 1.707e-3
-0.067, 1.717e-3
-0.068, 1.728e-3
-0.069, 1.737e-3
-0.070, 1.747e-3
-0.071, 1.757e-3
-0.072, 1.765e-3
-0.073, 1.775e-3
-0.074, 1.784e-3
-0.075, 1.792e-3
-0.076, 1.802e-3
-0.077, 1.810e-3
-0.078, 1.819e-3
-0.079, 1.827e-3
-0.080, 1.835e-3
-0.081, 1.844e-3
-0.082, 1.851e-3
-0.083, 1.860e-3
-0.084, 1.869e-3
-0.085, 1.876e-3
-0.086, 1.884e-3
-0.087, 1.891e-3
-0.088, 1.898e-3
-0.089, 1.906e-3
-0.090, 1.914e-3
-0.091, 1.921e-3
-0.092, 1.929e-3
-0.093, 1.935e-3
-0.094, 1.943e-3
-0.095, 1.950e-3
-0.096, 1.957e-3
-0.097, 1.964e-3
-0.098, 1.971e-3
-0.099, 1.978e-3
-0.100, 1.985e-3
-0.101, 1.991e-3
-0.102, 1.999e-3
-0.103, 2.006e-3
-0.104, 2.012e-3
-0.105, 2.019e-3
-0.106, 2.025e-3
-0.107, 2.031e-3
-0.108, 2.038e-3
-0.109, 2.044e-3
-0.110, 2.051e-3
-0.111, 2.057e-3
-0.112, 2.063e-3
-0.113, 2.070e-3
-0.114, 2.076e-3
-0.115, 2.082e-3
-0.116, 2.089e-3
-0.117, 2.094e-3
-0.118, 2.101e-3
-0.119, 2.107e-3
-0.120, 2.112e-3
-0.121, 2.119e-3
-0.122, 2.125e-3
-0.123, 2.131e-3
-0.124, 2.138e-3
-0.125, 2.143e-3
-0.126, 2.149e-3
-0.127, 2.155e-3
-0.128, 2.161e-3
-0.129, 2.168e-3
-0.130, 2.174e-3
-0.131, 2.179e-3
-0.132, 2.186e-3
-0.133, 2.191e-3
-0.134, 2.197e-3
-0.135, 2.204e-3
-0.136, 2.209e-3
-0.137, 2.216e-3
-0.138, 2.221e-3
-0.139, 2.227e-3
-0.140, 2.233e-3
-0.141, 2.239e-3
-0.142, 2.245e-3
-0.143, 2.251e-3
-0.144, 2.256e-3
-0.145, 2.263e-3
-0.146, 2.268e-3
-0.147, 2.274e-3
-0.148, 2.280e-3
-0.149, 2.286e-3
-0.150, 2.292e-3
-0.151, 2.298e-3
-0.152, 2.303e-3
-0.153, 2.310e-3
-0.154, 2.316e-3
-0.155, 2.322e-3
-0.156, 2.328e-3
-0.157, 2.333e-3
-0.158, 2.340e-3
-0.159, 2.346e-3
-0.160, 2.352e-3
-0.161, 2.358e-3
-0.162, 2.364e-3
-0.163, 2.370e-3
-0.164, 2.376e-3
-0.165, 2.382e-3
-0.166, 2.388e-3
-0.167, 2.394e-3
-0.168, 2.400e-3
-0.169, 2.407e-3
-0.170, 2.413e-3
-0.171, 2.419e-3
-0.172, 2.425e-3
-0.173, 2.432e-3
-0.174, 2.438e-3
-0.175, 2.444e-3
-0.176, 2.450e-3
-0.177, 2.457e-3
-0.178, 2.464e-3
-0.179, 2.471e-3
-0.180, 2.478e-3
-0.181, 2.484e-3
-0.182, 2.491e-3
-0.183, 2.498e-3
-0.184, 2.504e-3
-0.185, 2.511e-3
-0.186, 2.518e-3
-0.187, 2.525e-3
-0.188, 2.532e-3
-0.189, 2.538e-3
-0.190, 2.545e-3
-0.191, 2.552e-3
-0.192, 2.559e-3
-0.193, 2.567e-3
-0.194, 2.573e-3
-0.195, 2.580e-3
-0.196, 2.587e-3
-0.197, 2.594e-3
-0.198, 2.602e-3
-0.199, 2.609e-3
-0.200, 2.616e-3
-0.201, 2.624e-3
-0.202, 2.631e-3
-0.203, 2.638e-3
-0.204, 2.646e-3
-0.205, 2.653e-3
-0.206, 2.661e-3
-0.207, 2.669e-3
-0.208, 2.676e-3
-0.209, 2.684e-3
-0.210, 2.692e-3
-0.211, 2.700e-3
-0.212, 2.708e-3
-0.213, 2.715e-3
-0.214, 2.724e-3
-0.215, 2.732e-3
-0.216, 2.739e-3
-0.217, 2.748e-3
-0.218, 2.756e-3
-0.219, 2.764e-3
-0.220, 2.773e-3
-0.221, 2.782e-3
-0.222, 2.789e-3
-0.223, 2.793e-3
-0.224, 2.801e-3
-0.225, 2.811e-3
-0.226, 2.819e-3
-0.227, 2.827e-3
-0.228, 2.837e-3
-0.229, 2.845e-3
-0.230, 2.854e-3
-0.231, 2.863e-3
-0.232, 2.872e-3
-0.233, 2.881e-3
-0.234, 2.890e-3
-0.235, 2.899e-3
-0.236, 2.909e-3
-0.237, 2.918e-3
-0.238, 2.928e-3
-0.239, 2.937e-3
-0.240, 2.946e-3
-0.241, 2.955e-3
-0.242, 2.965e-3
-0.243, 2.974e-3
-0.244, 2.984e-3
-0.245, 2.993e-3
-0.246, 3.003e-3
-0.247, 3.013e-3
-0.248, 3.014e-3
-0.249, 3.023e-3
-0.250, 3.035e-3
-0.251, 3.044e-3
-0.252, 3.053e-3
-0.253, 3.063e-3
-0.254, 3.072e-3
-0.255, 3.084e-3
-0.256, 3.093e-3
-0.257, 3.106e-3
-0.258, 3.115e-3
-0.259, 3.124e-3
-0.260, 3.133e-3
-0.261, 3.146e-3
-0.262, 3.155e-3
-0.263, 3.167e-3
-0.264, 3.176e-3
-0.265, 3.185e-3
-0.266, 3.198e-3
-0.267, 3.207e-3
-0.268, 3.219e-3
-0.269, 3.228e-3
-0.270, 3.238e-3
-0.271, 3.250e-3
-0.272, 3.259e-3
-0.273, 3.271e-3
-0.274, 3.281e-3
-0.275, 3.293e-3
-0.276, 3.302e-3
-0.277, 3.314e-3
-0.278, 3.323e-3
-0.279, 3.336e-3
-0.280, 3.345e-3
-0.281, 3.366e-3
-0.282, 3.373e-3
-0.283, 3.382e-3
-0.284, 3.391e-3
-0.285, 3.400e-3
-0.286, 3.416e-3
-0.287, 3.422e-3
-0.288, 3.434e-3
-0.289, 3.446e-3
-0.290, 3.455e-3
-0.291, 3.465e-3
-0.292, 3.477e-3
-0.293, 3.489e-3
-0.294, 3.501e-3
-0.295, 3.511e-3
-0.296, 3.523e-3
-0.297, 3.535e-3
-0.298, 3.544e-3
-0.299, 3.557e-3
-0.300, 3.569e-3
-0.301, 3.581e-3
-0.302, 3.590e-3
-0.303, 3.603e-3
-0.304, 3.615e-3
-0.305, 3.627e-3
-0.306, 3.636e-3
-0.307, 3.652e-3
-0.308, 3.664e-3
-0.309, 3.673e-3
-0.310, 3.686e-3
-0.311, 3.698e-3
-0.312, 3.710e-3
-0.313, 3.722e-3
-0.314, 3.732e-3
-0.315, 3.744e-3
-0.316, 3.756e-3
-0.317, 3.771e-3
-0.318, 3.784e-3
-0.319, 3.793e-3
-0.320, 3.805e-3
-0.321, 3.817e-3
-0.322, 3.830e-3
-0.323, 3.842e-3
-0.324, 3.857e-3
-0.325, 3.867e-3
-0.326, 3.882e-3
-0.327, 3.894e-3
-0.328, 3.906e-3
-0.329, 3.919e-3
-0.330, 3.931e-3
-0.331, 3.943e-3
-0.332, 3.959e-3
-0.333, 3.971e-3
-0.334, 3.983e-3
-0.335, 3.995e-3
-0.336, 4.011e-3
-0.337, 4.023e-3
-0.338, 4.035e-3
-0.339, 4.051e-3
-0.340, 4.063e-3
-0.341, 4.075e-3
-0.342, 4.087e-3
-0.343, 4.103e-3
-0.344, 4.115e-3
-0.345, 4.127e-3
-0.346, 4.143e-3
-0.347, 4.155e-3
-0.348, 4.170e-3
-0.349, 4.183e-3
-0.350, 4.195e-3
-0.351, 4.207e-3
-0.352, 4.222e-3
-0.353, 4.238e-3
-0.354, 4.250e-3
-0.355, 4.265e-3
-0.356, 4.278e-3
-0.357, 4.290e-3
-0.358, 4.308e-3
-0.359, 4.321e-3
-0.360, 4.333e-3
-0.361, 4.348e-3
-0.362, 4.361e-3
-0.363, 4.373e-3
-0.364, 4.388e-3
-0.365, 4.400e-3
-0.366, 4.416e-3
-0.367, 4.431e-3
-0.368, 4.443e-3
-0.369, 4.459e-3
-0.370, 4.471e-3
-0.371, 4.486e-3
-0.372, 4.502e-3
-0.373, 4.514e-3
-0.374, 4.526e-3
-0.375, 4.538e-3
-0.376, 4.554e-3
-0.377, 4.569e-3
-0.378, 4.584e-3
-0.379, 4.600e-3
-0.380, 4.615e-3
-0.381, 4.631e-3
-0.382, 4.646e-3
-0.383, 4.658e-3
-0.384, 4.673e-3
-0.385, 4.689e-3
-0.386, 4.704e-3
-0.387, 4.719e-3
-0.388, 4.735e-3
-0.389, 4.747e-3
-0.390, 4.766e-3
-0.391, 4.781e-3
-0.392, 4.793e-3
-0.393, 4.808e-3
-0.394, 4.824e-3
-0.395, 4.836e-3
-0.396, 4.854e-3
-0.397, 4.870e-3
-0.398, 4.888e-3
-0.399, 4.907e-3
-0.400, 4.922e-3
-0.401, 4.940e-3
-0.402, 4.956e-3
-0.403, 4.971e-3
-0.404, 4.989e-3
-0.405, 5.002e-3
-0.406, 5.017e-3
-0.407, 5.036e-3
-0.408, 5.051e-3
-0.409, 5.066e-3
-0.410, 5.085e-3
-0.411, 5.100e-3
-0.412, 5.115e-3
-0.413, 5.131e-3
-0.414, 5.146e-3
-0.415, 5.164e-3
-0.416, 5.183e-3
-0.417, 5.198e-3
-0.418, 5.217e-3
-0.419, 5.232e-3
-0.420, 5.253e-3
-0.421, 5.272e-3
-0.422, 5.290e-3
-0.423, 5.302e-3
-0.424, 5.318e-3
-0.425, 5.333e-3
-0.426, 5.352e-3
-0.427, 5.367e-3
-0.428, 5.382e-3
-0.429, 5.404e-3
-0.430, 5.422e-3
-0.431, 5.441e-3
-0.432, 5.456e-3
-0.433, 5.474e-3
-0.434, 5.496e-3
-0.435, 5.508e-3
-0.436, 5.526e-3
-0.437, 5.539e-3
-0.438, 5.560e-3
-0.439, 5.579e-3
-0.440, 5.594e-3
-0.441, 5.618e-3
-0.442, 5.637e-3
-0.443, 5.652e-3
-0.444, 5.671e-3
-0.445, 5.683e-3
-0.446, 5.701e-3
-0.447, 5.717e-3
-0.448, 5.732e-3
-0.449, 5.750e-3
-0.450, 5.766e-3
-0.451, 5.787e-3
-0.452, 5.821e-3
-0.453, 5.839e-3
-0.454, 5.858e-3
-0.455, 5.873e-3
-0.456, 5.882e-3
-0.457, 5.898e-3
-0.458, 5.925e-3
-0.459, 5.947e-3
-0.460, 5.968e-3
-0.461, 5.984e-3
-0.462, 5.996e-3
-0.463, 6.011e-3
-0.464, 6.030e-3
-0.465, 6.048e-3
-0.466, 6.069e-3
-0.467, 6.097e-3
-0.468, 6.119e-3
-0.469, 6.128e-3
-0.470, 6.143e-3
-0.471, 6.158e-3
-0.472, 6.177e-3
-0.473, 6.214e-3
-0.474, 6.235e-3
-0.475, 6.254e-3
-0.476, 6.263e-3
-0.477, 6.275e-3
-0.478, 6.287e-3
-0.479, 6.309e-3
-0.480, 6.318e-3
-0.481, 6.370e-3
-0.482, 6.392e-3
-0.483, 6.410e-3
-0.484, 6.425e-3
-0.485, 6.435e-3
-0.486, 6.450e-3
-0.487, 6.459e-3
-0.488, 6.468e-3
-0.489, 6.505e-3
-0.490, 6.524e-3
-0.491, 6.539e-3
-0.492, 6.554e-3
-0.493, 6.567e-3
-0.494, 6.576e-3
-0.495, 6.597e-3
-0.496, 6.637e-3
-0.497, 6.646e-3
-0.498, 6.659e-3
-0.499, 6.702e-3
-0.500, 6.708e-3
-0.501, 6.732e-3
-0.502, 6.769e-3
-0.503, 6.794e-3
-0.504, 6.806e-3
-0.505, 6.827e-3
-0.506, 6.843e-3
-0.507, 6.849e-3
-0.508, 6.849e-3
-0.509, 6.892e-3
-0.510, 6.910e-3
-0.511, 6.913e-3
-0.512, 6.922e-3
-0.513, 6.935e-3
-0.514, 6.965e-3
-0.515, 6.987e-3
-0.516, 7.008e-3
-0.517, 7.014e-3
-0.518, 7.021e-3
-0.519, 7.036e-3
-0.520, 7.054e-3
-0.521, 7.076e-3
-0.522, 7.100e-3
-0.523, 7.103e-3
-0.524, 7.125e-3
-0.525, 7.159e-3
-0.526, 7.159e-3
-0.527, 7.162e-3
-0.528, 7.177e-3
-0.529, 7.211e-3
-0.530, 7.217e-3
-0.531, 7.214e-3
-0.532, 7.220e-3
-0.533, 7.235e-3
-0.534, 7.251e-3
-0.535, 7.266e-3
-0.536, 7.284e-3
-0.537, 7.327e-3
-0.538, 7.321e-3
-0.539, 7.334e-3
-0.540, 7.358e-3
-0.541, 7.358e-3
-0.542, 7.389e-3
-0.543, 7.380e-3
-0.544, 7.370e-3
-0.545, 7.426e-3
-0.546, 7.432e-3
-0.547, 7.426e-3
-0.548, 7.459e-3
-0.549, 7.462e-3
-0.550, 7.459e-3
-0.551, 7.518e-3
-0.552, 7.524e-3
-0.553, 7.527e-3
-0.554, 7.524e-3
-0.555, 7.542e-3
-0.556, 7.597e-3
-0.557, 7.610e-3
-0.558, 7.671e-3
-0.559, 7.662e-3
-0.560, 7.671e-3
-0.561, 7.671e-3
-0.562, 7.696e-3
-0.563, 7.757e-3
-0.564, 7.742e-3
-0.565, 7.729e-3
-0.566, 7.757e-3
-0.567, 7.788e-3
-0.568, 7.791e-3
-0.569, 7.828e-3
-0.570, 7.803e-3
-0.571, 7.831e-3
-0.572, 7.834e-3
-0.573, 7.867e-3
-0.574, 7.913e-3
-0.575, 7.892e-3
-0.576, 7.907e-3
-0.577, 7.904e-3
-0.578, 7.923e-3
-0.579, 7.975e-3
-0.580, 7.993e-3
-0.581, 7.996e-3
-0.582, 7.996e-3
-0.583, 8.039e-3
-0.584, 8.052e-3
-0.585, 8.073e-3
-0.586, 8.079e-3
-0.587, 8.113e-3
-0.588, 8.113e-3
-0.589, 8.134e-3
-0.590, 8.119e-3
-0.591, 8.199e-3
-0.592, 8.171e-3
-0.593, 8.190e-3
-0.594, 8.211e-3
-0.595, 8.217e-3
-0.596, 8.239e-3
-0.597, 8.257e-3
-0.598, 8.266e-3
-0.599, 8.279e-3
-0.600, 8.312e-3
-0.601, 8.291e-3
-0.602, 8.349e-3
-0.603, 8.303e-3
-0.604, 8.414e-3
-0.605, 8.380e-3
-0.606, 8.389e-3
-0.607, 8.411e-3
-0.608, 8.374e-3
-0.609, 8.398e-3
-0.610, 8.441e-3
-0.611, 8.518e-3
-0.612, 8.668e-3
-0.613, 8.690e-3
-0.614, 8.702e-3
-0.615, 8.687e-3
-0.616, 8.659e-3
-0.617, 8.665e-3
-0.618, 8.674e-3
-0.619, 8.690e-3
-0.620, 8.690e-3
-0.621, 8.760e-3
-0.622, 8.766e-3
-0.623, 8.791e-3
-0.624, 8.745e-3
-0.625, 8.769e-3
-0.626, 8.871e-3
-0.627, 8.846e-3
-0.628, 8.886e-3
-0.629, 8.862e-3
-0.630, 8.917e-3
-0.631, 8.889e-3
-0.632, 8.947e-3
-0.633, 8.987e-3
-0.634, 8.997e-3
-0.635, 9.006e-3
-0.636, 8.963e-3
-0.637, 9.036e-3
-0.638, 9.046e-3
-0.639, 9.043e-3
-0.640, 9.092e-3
-0.641, 9.046e-3
-0.642, 9.082e-3
-0.643, 9.116e-3
-0.644, 9.122e-3
-0.645, 9.116e-3
-0.646, 9.107e-3
-0.647, 9.141e-3
-0.648, 9.153e-3
-0.649, 9.162e-3
-0.650, 9.239e-3
-0.651, 9.285e-3
-0.652, 9.300e-3
-0.653, 9.285e-3
-0.654, 9.288e-3
-0.655, 9.328e-3
-0.656, 9.276e-3
-0.657, 9.297e-3
-0.658, 9.414e-3
-0.659, 9.362e-3
-0.660, 9.438e-3
-0.661, 9.558e-3
-0.662, 9.540e-3
-0.663, 9.558e-3
-0.664, 9.543e-3
-0.665, 9.515e-3
-0.666, 9.647e-3
-0.667, 9.650e-3
-0.668, 9.573e-3
-0.669, 9.675e-3
-0.670, 9.613e-3
-0.671, 9.635e-3
-0.672, 9.641e-3
-0.673, 9.647e-3
-0.674, 9.711e-3
-0.675, 9.668e-3
-0.676, 9.604e-3
-0.677, 9.681e-3
-0.678, 9.653e-3
-0.679, 9.702e-3
-0.680, 9.807e-3
-0.681, 9.745e-3
-0.682, 9.782e-3
-0.683, 1.068e-2
-0.684, 1.053e-2
-0.685, 1.051e-2
-0.686, 1.044e-2
-0.687, 1.052e-2
-0.688, 1.055e-2
-0.689, 1.046e-2
-0.690, 1.047e-2
-0.691, 1.044e-2
-0.692, 1.042e-2
-0.693, 1.048e-2
-0.694, 1.059e-2
-0.695, 1.052e-2
-0.696, 1.048e-2
-0.697, 1.048e-2
-0.698, 1.050e-2
-0.699, 1.051e-2
-0.700, 1.049e-2
-0.701, 1.044e-2
-0.702, 1.045e-2
-0.703, 1.052e-2
-0.704, 1.044e-2
-0.705, 1.060e-2
-0.706, 1.055e-2
-0.707, 1.056e-2
-0.708, 1.079e-2
-0.709, 1.085e-2
-0.710, 1.084e-2
-0.711, 1.085e-2
-0.712, 1.077e-2
-0.713, 1.086e-2
-0.714, 1.083e-2
-0.715, 1.085e-2
-0.716, 1.075e-2
-0.717, 1.081e-2
-0.718, 1.085e-2
-0.719, 1.085e-2
-0.720, 1.090e-2
-0.721, 1.090e-2
-0.722, 1.092e-2
-0.723, 1.087e-2
-0.724, 1.096e-2
-0.725, 1.086e-2
-0.726, 1.095e-2
-0.727, 1.087e-2
-0.728, 1.093e-2
-0.729, 1.093e-2
-0.730, 1.095e-2
-0.731, 1.093e-2
-0.732, 1.095e-2
-0.733, 1.092e-2
-0.734, 1.097e-2
-0.735, 1.091e-2
-0.736, 1.095e-2
-0.737, 1.092e-2
-0.738, 1.098e-2
-0.739, 1.122e-2
-0.740, 1.129e-2
-0.741, 1.129e-2
-0.742, 1.129e-2
-0.743, 1.129e-2
-0.744, 1.132e-2
-0.745, 1.131e-2
-0.746, 1.122e-2
-0.747, 1.131e-2
-0.748, 1.131e-2
-0.749, 1.177e-2
-0.750, 1.231e-2
-0.751, 1.208e-2
-0.752, 1.203e-2
-0.753, 1.186e-2
-0.754, 1.192e-2
-0.755, 1.191e-2
-0.756, 1.189e-2
-0.757, 1.191e-2
-0.758, 1.186e-2
-0.759, 1.187e-2
-0.760, 1.190e-2
-0.761, 1.187e-2
-0.762, 1.186e-2
-0.763, 1.194e-2
-0.764, 1.209e-2
-0.765, 1.209e-2
-0.766, 1.205e-2
-0.767, 1.199e-2
-0.768, 1.191e-2
-0.769, 1.194e-2
-0.770, 1.194e-2
-0.771, 1.203e-2
-0.772, 1.233e-2
-0.773, 1.234e-2
-0.774, 1.212e-2
-0.775, 1.210e-2
-0.776, 1.205e-2
-0.777, 1.206e-2
-0.778, 1.202e-2
-0.779, 1.209e-2
-0.780, 1.219e-2
-0.781, 1.222e-2
-0.782, 1.224e-2
-0.783, 1.218e-2
-0.784, 1.228e-2
-0.785, 1.222e-2
-0.786, 1.227e-2
-0.787, 1.220e-2
-0.788, 1.227e-2
-0.789, 1.229e-2
-0.790, 1.225e-2
-0.791, 1.226e-2
-0.792, 1.232e-2
-0.793, 1.233e-2
-0.794, 1.225e-2
-0.795, 1.231e-2
-0.796, 1.229e-2
-0.797, 1.241e-2
-0.798, 1.232e-2
-0.799, 1.249e-2
-0.800, 1.234e-2
-0.799, 1.212e-2
-0.798, 1.202e-2
-0.797, 1.190e-2
-0.796, 1.177e-2
-0.795, 1.228e-2
-0.794, 1.244e-2
-0.793, 1.216e-2
-0.792, 1.200e-2
-0.791, 1.181e-2
-0.790, 1.175e-2
-0.789, 1.147e-2
-0.788, 1.126e-2
-0.787, 1.122e-2
-0.786, 1.110e-2
-0.785, 1.086e-2
-0.784, 1.087e-2
-0.783, 1.070e-2
-0.782, 1.058e-2
-0.781, 1.035e-2
-0.780, 1.020e-2
-0.779, 1.011e-2
-0.778, 1.004e-2
-0.777, 9.770e-3
-0.776, 9.690e-3
-0.775, 9.518e-3
-0.774, 9.699e-3
-0.773, 9.586e-3
-0.772, 9.322e-3
-0.771, 9.214e-3
-0.770, 9.030e-3
-0.769, 8.935e-3
-0.768, 8.840e-3
-0.767, 8.720e-3
-0.766, 8.625e-3
-0.765, 8.515e-3
-0.764, 8.506e-3
-0.763, 8.331e-3
-0.762, 8.254e-3
-0.761, 8.223e-3
-0.760, 8.088e-3
-0.759, 8.214e-3
-0.758, 8.061e-3
-0.757, 8.021e-3
-0.756, 7.898e-3
-0.755, 7.772e-3
-0.754, 7.831e-3
-0.753, 7.769e-3
-0.752, 7.567e-3
-0.751, 7.527e-3
-0.750, 7.548e-3
-0.749, 7.493e-3
-0.748, 7.370e-3
-0.747, 7.260e-3
-0.746, 7.867e-3
-0.745, 7.843e-3
-0.744, 7.631e-3
-0.743, 7.487e-3
-0.742, 7.389e-3
-0.741, 7.410e-3
-0.740, 7.423e-3
-0.739, 7.214e-3
-0.738, 7.091e-3
-0.737, 7.131e-3
-0.736, 6.987e-3
-0.735, 6.907e-3
-0.734, 6.870e-3
-0.733, 6.705e-3
-0.732, 6.714e-3
-0.731, 6.600e-3
-0.730, 6.490e-3
-0.729, 6.462e-3
-0.728, 6.324e-3
-0.727, 6.195e-3
-0.726, 6.192e-3
-0.725, 6.042e-3
-0.724, 6.195e-3
-0.723, 6.112e-3
-0.722, 6.079e-3
-0.721, 6.112e-3
-0.720, 5.974e-3
-0.719, 5.928e-3
-0.718, 5.793e-3
-0.717, 5.812e-3
-0.716, 5.757e-3
-0.715, 5.668e-3
-0.714, 5.548e-3
-0.713, 5.499e-3
-0.712, 5.398e-3
-0.711, 5.321e-3
-0.710, 5.290e-3
-0.709, 5.192e-3
-0.708, 5.177e-3
-0.707, 5.241e-3
-0.706, 5.201e-3
-0.705, 5.054e-3
-0.704, 4.919e-3
-0.703, 4.925e-3
-0.702, 4.833e-3
-0.701, 4.818e-3
-0.700, 4.719e-3
-0.699, 4.637e-3
-0.698, 4.640e-3
-0.697, 4.569e-3
-0.696, 4.673e-3
-0.695, 4.750e-3
-0.694, 4.646e-3
-0.693, 4.560e-3
-0.692, 4.480e-3
-0.691, 4.373e-3
-0.690, 4.305e-3
-0.689, 4.259e-3
-0.688, 4.278e-3
-0.687, 4.802e-3
-0.686, 4.673e-3
-0.685, 4.575e-3
-0.684, 4.468e-3
-0.683, 4.397e-3
-0.682, 4.348e-3
-0.681, 4.330e-3
-0.680, 4.241e-3
-0.679, 4.299e-3
-0.678, 4.376e-3
-0.677, 4.314e-3
-0.676, 4.253e-3
-0.675, 4.186e-3
-0.674, 4.152e-3
-0.673, 4.109e-3
-0.672, 3.995e-3
-0.671, 3.906e-3
-0.670, 3.928e-3
-0.669, 3.802e-3
-0.668, 3.778e-3
-0.667, 3.756e-3
-0.666, 3.790e-3
-0.665, 3.728e-3
-0.664, 3.664e-3
-0.663, 3.655e-3
-0.662, 3.575e-3
-0.661, 3.554e-3
-0.660, 3.511e-3
-0.659, 3.428e-3
-0.658, 3.474e-3
-0.657, 3.360e-3
-0.656, 3.314e-3
-0.655, 3.247e-3
-0.654, 3.225e-3
-0.653, 3.188e-3
-0.652, 3.136e-3
-0.651, 3.087e-3
-0.650, 3.041e-3
-0.649, 3.017e-3
-0.648, 2.989e-3
-0.647, 2.937e-3
-0.646, 2.885e-3
-0.645, 2.885e-3
-0.644, 2.894e-3
-0.643, 2.842e-3
-0.642, 2.783e-3
-0.641, 2.744e-3
-0.640, 2.787e-3
-0.639, 2.808e-3
-0.638, 2.759e-3
-0.637, 2.777e-3
-0.636, 2.716e-3
-0.635, 2.701e-3
-0.634, 2.691e-3
-0.633, 2.584e-3
-0.632, 2.606e-3
-0.631, 2.569e-3
-0.630, 2.455e-3
-0.629, 2.547e-3
-0.628, 2.510e-3
-0.627, 2.474e-3
-0.626, 2.477e-3
-0.625, 2.406e-3
-0.624, 2.323e-3
-0.623, 2.351e-3
-0.622, 2.302e-3
-0.621, 2.277e-3
-0.620, 2.250e-3
-0.619, 2.240e-3
-0.618, 2.191e-3
-0.617, 2.207e-3
-0.616, 2.164e-3
-0.615, 2.127e-3
-0.614, 2.108e-3
-0.613, 2.096e-3
-0.612, 2.069e-3
-0.611, 1.995e-3
-0.610, 1.980e-3
-0.609, 1.980e-3
-0.608, 1.940e-3
-0.607, 1.906e-3
-0.606, 1.900e-3
-0.605, 2.283e-3
-0.604, 2.228e-3
-0.603, 2.158e-3
-0.602, 2.115e-3
-0.601, 2.072e-3
-0.600, 2.026e-3
-0.599, 1.992e-3
-0.598, 1.989e-3
-0.597, 1.946e-3
-0.596, 1.927e-3
-0.595, 1.854e-3
-0.594, 1.851e-3
-0.593, 1.842e-3
-0.592, 1.826e-3
-0.591, 1.826e-3
-0.590, 1.835e-3
-0.589, 1.817e-3
-0.588, 1.805e-3
-0.587, 1.771e-3
-0.586, 1.762e-3
-0.585, 1.728e-3
-0.584, 1.685e-3
-0.583, 1.676e-3
-0.582, 1.694e-3
-0.581, 1.639e-3
-0.580, 1.611e-3
-0.579, 1.593e-3
-0.578, 1.608e-3
-0.577, 1.547e-3
-0.576, 1.520e-3
-0.575, 1.584e-3
-0.574, 1.561e-3
-0.573, 1.573e-3
-0.572, 1.564e-3
-0.571, 1.505e-3
-0.570, 1.493e-3
-0.569, 1.456e-3
-0.568, 1.458e-3
-0.567, 1.427e-3
-0.566, 1.406e-3
-0.565, 1.370e-3
-0.564, 1.311e-3
-0.563, 1.300e-3
-0.562, 1.274e-3
-0.561, 1.276e-3
-0.560, 1.303e-3
-0.559, 1.287e-3
-0.558, 1.267e-3
-0.557, 1.257e-3
-0.556, 1.253e-3
-0.555, 1.212e-3
-0.554, 1.178e-3
-0.553, 1.156e-3
-0.552, 1.161e-3
-0.551, 1.137e-3
-0.550, 1.115e-3
-0.549, 1.098e-3
-0.548, 1.052e-3
-0.547, 1.053e-3
-0.546, 1.025e-3
-0.545, 1.005e-3
-0.544, 9.742e-4
-0.543, 9.420e-4
-0.542, 9.291e-4
-0.541, 8.951e-4
-0.540, 9.079e-4
-0.539, 8.917e-4
-0.538, 8.809e-4
-0.537, 8.377e-4
-0.536, 8.233e-4
-0.535, 8.079e-4
-0.534, 8.214e-4
-0.533, 8.104e-4
-0.532, 7.923e-4
-0.531, 7.689e-4
-0.530, 7.659e-4
-0.529, 7.450e-4
-0.528, 7.343e-4
-0.527, 7.128e-4
-0.526, 6.975e-4
-0.525, 6.600e-4
-0.524, 6.665e-4
-0.523, 6.395e-4
-0.522, 6.428e-4
-0.521, 6.293e-4
-0.520, 6.045e-4
-0.519, 6.063e-4
-0.518, 5.971e-4
-0.517, 5.720e-4
-0.516, 5.490e-4
-0.515, 5.732e-4
-0.514, 5.517e-4
-0.513, 5.287e-4
-0.512, 5.217e-4
-0.511, 5.039e-4
-0.510, 5.238e-4
-0.509, 5.290e-4
-0.508, 5.085e-4
-0.507, 5.103e-4
-0.506, 4.848e-4
-0.505, 4.631e-4
-0.504, 4.824e-4
-0.503, 4.836e-4
-0.502, 4.618e-4
-0.501, 4.483e-4
-0.500, 4.278e-4
-0.499, 4.238e-4
-0.498, 4.176e-4
-0.497, 4.002e-4
-0.496, 3.759e-4
-0.495, 3.597e-4
-0.494, 3.554e-4
-0.493, 3.483e-4
-0.492, 3.419e-4
-0.491, 3.262e-4
-0.490, 3.185e-4
-0.489, 3.057e-4
-0.488, 2.872e-4
-0.487, 2.710e-4
-0.486, 2.685e-4
-0.485, 2.418e-4
-0.484, 2.201e-4
-0.483, 2.167e-4
-0.482, 2.047e-4
-0.481, 1.888e-4
-0.480, 1.746e-4
-0.479, 1.667e-4
-0.478, 1.452e-4
-0.477, 1.302e-4
-0.476, 1.241e-4
-0.475, 1.034e-4
-0.474, 9.359e-5
-0.473, 9.003e-5
-0.472, 7.653e-5
-0.471, 6.140e-5
-0.470, 5.444e-5
-0.469, 3.860e-5
-0.468, 2.240e-5
-0.467, 1.351e-5
-0.466, 7.892e-6
-0.465, -9.628e-6
-0.464, -2.721e-5
-0.463, -4.083e-5
-0.462, -4.902e-5
-0.461, -5.568e-5
-0.460, -6.492e-5
-0.459, -6.946e-5
-0.458, -7.820e-5
-0.457, -9.532e-5
-0.456, -1.076e-4
-0.455, -1.170e-4
-0.454, -1.274e-4
-0.453, -1.364e-4
-0.452, -1.414e-4
-0.451, -1.487e-4
-0.450, -1.601e-4
-0.449, -1.796e-4
-0.448, -1.911e-4
-0.447, -1.949e-4
-0.446, -2.003e-4
-0.445, -2.080e-4
-0.444, -2.183e-4
-0.443, -2.285e-4
-0.442, -2.315e-4
-0.441, -2.414e-4
-0.440, -2.493e-4
-0.439, -2.589e-4
-0.438, -2.721e-4
-0.437, -2.836e-4
-0.436, -2.909e-4
-0.435, -2.937e-4
-0.434, -3.025e-4
-0.433, -3.126e-4
-0.432, -3.239e-4
-0.431, -3.273e-4
-0.430, -3.365e-4
-0.429, -3.414e-4
-0.428, -3.537e-4
-0.427, -3.663e-4
-0.426, -3.727e-4
-0.425, -3.798e-4
-0.424, -3.874e-4
-0.423, -3.954e-4
-0.422, -4.031e-4
-0.421, -4.083e-4
-0.420, -4.111e-4
-0.419, -4.169e-4
-0.418, -4.273e-4
-0.417, -4.372e-4
-0.416, -4.448e-4
-0.415, -4.540e-4
-0.414, -4.632e-4
-0.413, -4.642e-4
-0.412, -4.651e-4
-0.411, -4.758e-4
-0.410, -4.838e-4
-0.409, -4.927e-4
-0.408, -4.672e-4
-0.407, -4.338e-4
-0.406, -4.476e-4
-0.405, -4.571e-4
-0.404, -4.660e-4
-0.403, -4.737e-4
-0.402, -4.823e-4
-0.401, -4.908e-4
-0.400, -4.997e-4
-0.399, -5.093e-4
-0.398, -5.185e-4
-0.397, -5.252e-4
-0.396, -5.338e-4
-0.395, -5.439e-4
-0.394, -5.537e-4
-0.393, -5.617e-4
-0.392, -5.547e-4
-0.391, -5.350e-4
-0.390, -5.418e-4
-0.389, -5.501e-4
-0.388, -5.605e-4
-0.387, -5.679e-4
-0.386, -5.761e-4
-0.385, -5.860e-4
-0.384, -5.945e-4
-0.383, -6.034e-4
-0.382, -6.123e-4
-0.381, -6.197e-4
-0.380, -6.274e-4
-0.379, -6.344e-4
-0.378, -6.430e-4
-0.377, -6.516e-4
-0.376, -6.599e-4
-0.375, -6.676e-4
-0.374, -6.752e-4
-0.373, -6.826e-4
-0.372, -6.909e-4
-0.371, -6.983e-4
-0.370, -7.050e-4
-0.369, -7.133e-4
-0.368, -7.197e-4
-0.367, -7.265e-4
-0.366, -7.335e-4
-0.365, -7.409e-4
-0.364, -7.483e-4
-0.363, -7.544e-4
-0.362, -7.608e-4
-0.361, -7.685e-4
-0.360, -7.753e-4
-0.359, -7.823e-4
-0.358, -7.900e-4
-0.357, -7.961e-4
-0.356, -8.035e-4
-0.355, -8.096e-4
-0.354, -8.167e-4
-0.353, -8.234e-4
-0.352, -8.302e-4
-0.351, -8.369e-4
-0.350, -8.443e-4
-0.349, -8.504e-4
-0.348, -8.572e-4
-0.347, -8.633e-4
-0.346, -8.698e-4
-0.345, -8.765e-4
-0.344, -8.820e-4
-0.343, -8.888e-4
-0.342, -8.952e-4
-0.341, -9.014e-4
-0.340, -9.081e-4
-0.339, -9.143e-4
-0.338, -9.204e-4
-0.337, -9.265e-4
-0.336, -9.320e-4
-0.335, -9.382e-4
-0.334, -9.443e-4
-0.333, -9.502e-4
-0.332, -9.566e-4
-0.331, -9.621e-4
-0.330, -9.683e-4
-0.329, -9.744e-4
-0.328, -9.796e-4
-0.327, -9.860e-4
-0.326, -9.922e-4
-0.325, -9.977e-4
-0.324, -1.004e-3
-0.323, -1.010e-3
-0.322, -1.015e-3
-0.321, -1.021e-3
-0.320, -1.027e-3
-0.319, -1.033e-3
-0.318, -1.038e-3
-0.317, -1.044e-3
-0.316, -1.050e-3
-0.315, -1.055e-3
-0.314, -1.061e-3
-0.313, -1.067e-3
-0.312, -1.072e-3
-0.311, -1.078e-3
-0.310, -1.083e-3
-0.309, -1.089e-3
-0.308, -1.095e-3
-0.307, -1.101e-3
-0.306, -1.106e-3
-0.305, -1.112e-3
-0.304, -1.116e-3
-0.303, -1.122e-3
-0.302, -1.127e-3
-0.301, -1.132e-3
-0.300, -1.138e-3
-0.299, -1.143e-3
-0.298, -1.148e-3
-0.297, -1.154e-3
-0.296, -1.158e-3
-0.295, -1.163e-3
-0.294, -1.169e-3
-0.293, -1.173e-3
-0.292, -1.178e-3
-0.291, -1.183e-3
-0.290, -1.188e-3
-0.289, -1.193e-3
-0.288, -1.198e-3
-0.287, -1.204e-3
-0.286, -1.209e-3
-0.285, -1.213e-3
-0.284, -1.219e-3
-0.283, -1.224e-3
-0.282, -1.229e-3
-0.281, -1.234e-3
-0.280, -1.238e-3
-0.279, -1.243e-3
-0.278, -1.248e-3
-0.277, -1.252e-3
-0.276, -1.258e-3
-0.275, -1.262e-3
-0.274, -1.267e-3
-0.273, -1.272e-3
-0.272, -1.276e-3
-0.271, -1.283e-3
-0.270, -1.287e-3
-0.269, -1.291e-3
-0.268, -1.296e-3
-0.267, -1.300e-3
-0.266, -1.305e-3
-0.265, -1.310e-3
-0.264, -1.314e-3
-0.263, -1.319e-3
-0.262, -1.324e-3
-0.261, -1.328e-3
-0.260, -1.333e-3
-0.259, -1.337e-3
-0.258, -1.342e-3
-0.257, -1.346e-3
-0.256, -1.351e-3
-0.255, -1.355e-3
-0.254, -1.360e-3
-0.253, -1.364e-3
-0.252, -1.369e-3
-0.251, -1.373e-3
-0.250, -1.378e-3
-0.249, -1.383e-3
-0.248, -1.386e-3
-0.247, -1.391e-3
-0.246, -1.395e-3
-0.245, -1.399e-3
-0.244, -1.404e-3
-0.243, -1.408e-3
-0.242, -1.412e-3
-0.241, -1.417e-3
-0.240, -1.420e-3
-0.239, -1.425e-3
-0.238, -1.429e-3
-0.237, -1.433e-3
-0.236, -1.438e-3
-0.235, -1.441e-3
-0.234, -1.445e-3
-0.233, -1.449e-3
-0.232, -1.453e-3
-0.231, -1.458e-3
-0.230, -1.460e-3
-0.229, -1.464e-3
-0.228, -1.469e-3
-0.227, -1.473e-3
-0.226, -1.477e-3
-0.225, -1.482e-3
-0.224, -1.486e-3
-0.223, -1.490e-3
-0.222, -1.494e-3
-0.221, -1.498e-3
-0.220, -1.503e-3
-0.219, -1.506e-3
-0.218, -1.510e-3
-0.217, -1.515e-3
-0.216, -1.518e-3
-0.215, -1.523e-3
-0.214, -1.527e-3
-0.213, -1.530e-3
-0.212, -1.535e-3
-0.211, -1.539e-3
-0.210, -1.542e-3
-0.209, -1.547e-3
-0.208, -1.550e-3
-0.207, -1.554e-3
-0.206, -1.558e-3
-0.205, -1.562e-3
-0.204, -1.567e-3
-0.203, -1.570e-3
-0.202, -1.573e-3
-0.201, -1.577e-3
-0.200, -1.580e-3
-0.199, -1.585e-3
-0.198, -1.589e-3
-0.197, -1.592e-3
-0.196, -1.596e-3
-0.195, -1.599e-3
-0.194, -1.603e-3
-0.193, -1.607e-3
-0.192, -1.610e-3
-0.191, -1.614e-3
-0.190, -1.618e-3
-0.189, -1.621e-3
-0.188, -1.625e-3
-0.187, -1.629e-3
-0.186, -1.633e-3
-0.185, -1.637e-3
-0.184, -1.640e-3
-0.183, -1.643e-3
-0.182, -1.647e-3
-0.181, -1.650e-3
-0.180, -1.655e-3
-0.179, -1.658e-3
-0.178, -1.661e-3
-0.177, -1.664e-3
-0.176, -1.667e-3
-0.175, -1.671e-3
-0.174, -1.675e-3
-0.173, -1.679e-3
-0.172, -1.683e-3
-0.171, -1.686e-3
-0.170, -1.689e-3
-0.169, -1.693e-3
-0.168, -1.695e-3
-0.167, -1.700e-3
-0.166, -1.703e-3
-0.165, -1.706e-3
-0.164, -1.710e-3
-0.163, -1.714e-3
-0.162, -1.717e-3
-0.161, -1.721e-3
-0.160, -1.724e-3
-0.159, -1.728e-3
-0.158, -1.731e-3
-0.157, -1.734e-3
-0.156, -1.738e-3
-0.155, -1.741e-3
-0.154, -1.745e-3
-0.153, -1.749e-3
-0.152, -1.752e-3
-0.151, -1.756e-3
-0.150, -1.760e-3
-0.149, -1.763e-3
-0.148, -1.767e-3
-0.147, -1.771e-3
-0.146, -1.774e-3
-0.145, -1.778e-3
-0.144, -1.780e-3
-0.143, -1.784e-3
-0.142, -1.788e-3
-0.141, -1.791e-3
-0.140, -1.795e-3
-0.139, -1.798e-3
-0.138, -1.801e-3
-0.137, -1.805e-3
-0.136, -1.808e-3
-0.135, -1.812e-3
-0.134, -1.815e-3
-0.133, -1.818e-3
-0.132, -1.822e-3
-0.131, -1.825e-3
-0.130, -1.829e-3
-0.129, -1.832e-3
-0.128, -1.835e-3
-0.127, -1.839e-3
-0.126, -1.842e-3
-0.125, -1.845e-3
-0.124, -1.849e-3
-0.123, -1.852e-3
-0.122, -1.856e-3
-0.121, -1.859e-3
-0.120, -1.862e-3
-0.119, -1.865e-3
-0.118, -1.869e-3
-0.117, -1.872e-3
-0.116, -1.876e-3
-0.115, -1.879e-3
-0.114, -1.881e-3
-0.113, -1.885e-3
-0.112, -1.888e-3
-0.111, -1.891e-3
-0.110, -1.895e-3
-0.109, -1.898e-3
-0.108, -1.901e-3
-0.107, -1.905e-3
-0.106, -1.908e-3
-0.105, -1.912e-3
-0.104, -1.915e-3
-0.103, -1.918e-3
-0.102, -1.922e-3
-0.101, -1.925e-3
-0.100, -1.929e-3
-0.099, -1.931e-3
-0.098, -1.934e-3
-0.097, -1.937e-3
-0.096, -1.941e-3
-0.095, -1.944e-3
-0.094, -1.947e-3
-0.093, -1.951e-3
-0.092, -1.954e-3
-0.091, -1.957e-3
-0.090, -1.963e-3
-0.089, -1.968e-3
-0.088, -1.971e-3
-0.087, -1.975e-3
-0.086, -1.978e-3
-0.085, -1.980e-3
-0.084, -1.984e-3
-0.083, -1.988e-3
-0.082, -1.990e-3
-0.081, -1.994e-3
-0.080, -1.996e-3
-0.079, -2.000e-3
-0.078, -2.003e-3
-0.077, -2.006e-3
-0.076, -2.010e-3
-0.075, -2.013e-3
-0.074, -2.016e-3
-0.073, -2.019e-3
-0.072, -2.022e-3
-0.071, -2.026e-3
-0.070, -2.029e-3
-0.069, -2.032e-3
-0.068, -2.035e-3
-0.067, -2.038e-3
-0.066, -2.042e-3
-0.065, -2.045e-3
-0.064, -2.048e-3
-0.063, -2.052e-3
-0.062, -2.055e-3
-0.061, -2.058e-3
-0.060, -2.063e-3
-0.059, -2.066e-3
-0.058, -2.069e-3
-0.057, -2.073e-3
-0.056, -2.076e-3
-0.055, -2.079e-3
-0.054, -2.082e-3
-0.053, -2.085e-3
-0.052, -2.089e-3
-0.051, -2.093e-3
-0.050, -2.096e-3
-0.049, -2.099e-3
-0.048, -2.102e-3
-0.047, -2.105e-3
-0.046, -2.108e-3
-0.045, -2.112e-3
-0.044, -2.116e-3
-0.043, -2.118e-3
-0.042, -2.122e-3
-0.041, -2.125e-3
-0.040, -2.128e-3
-0.039, -2.131e-3
-0.038, -2.130e-3
-0.037, -2.132e-3
-0.036, -2.137e-3
-0.035, -2.139e-3
-0.034, -2.115e-3
-0.033, -2.035e-3
-0.032, -2.160e-3
-0.031, -2.189e-3
-0.030, -2.186e-3
-0.029, -2.186e-3
-0.028, -2.188e-3
-0.027, -2.189e-3
-0.026, -2.192e-3
-0.025, -2.196e-3
-0.024, -2.200e-3
-0.023, -2.200e-3
-0.022, -2.203e-3
-0.021, -2.208e-3
-0.020, -2.211e-3
-0.019, -2.213e-3
-0.018, -2.216e-3
-0.017, -2.219e-3
-0.016, -2.222e-3
-0.015, -2.225e-3
-0.014, -2.228e-3
-0.013, -2.231e-3
-0.012, -2.235e-3
-0.011, -2.238e-3
-0.010, -2.241e-3
-0.009, -2.245e-3
-0.008, -2.247e-3
-0.007, -2.251e-3
-0.006, -2.255e-3
-0.005, -2.258e-3
-0.004, -2.262e-3
-0.003, -2.265e-3
-0.002, -2.268e-3
-0.001, -2.272e-3
-0.000, -2.279e-3
0.001, -2.281e-3
0.002, -2.284e-3
0.003, -2.287e-3
0.004, -2.291e-3
0.005, -2.294e-3
0.006, -2.298e-3
0.007, -2.301e-3
0.008, -2.304e-3
0.009, -2.308e-3
0.010, -2.311e-3
0.011, -2.313e-3
0.012, -2.318e-3
0.013, -2.322e-3
0.014, -2.326e-3
0.015, -2.330e-3
0.016, -2.333e-3
0.017, -2.337e-3
0.018, -2.340e-3
0.019, -2.344e-3
0.020, -2.348e-3
0.021, -2.351e-3
0.022, -2.355e-3
0.023, -2.359e-3
0.024, -2.362e-3
0.025, -2.366e-3
0.026, -2.370e-3
0.027, -2.373e-3
0.028, -2.377e-3
0.029, -2.381e-3
0.030, -2.384e-3
0.031, -2.389e-3
0.032, -2.392e-3
0.033, -2.396e-3
0.034, -2.400e-3
0.035, -2.403e-3
0.036, -2.407e-3
0.037, -2.411e-3
0.038, -2.415e-3
0.039, -2.419e-3
0.040, -2.422e-3
0.041, -2.426e-3
0.042, -2.429e-3
0.043, -2.433e-3
0.044, -2.436e-3
0.045, -2.440e-3
0.046, -2.444e-3
0.047, -2.448e-3
0.048, -2.451e-3
0.049, -2.455e-3
0.050, -2.459e-3
0.051, -2.463e-3
0.052, -2.467e-3
0.053, -2.471e-3
0.054, -2.474e-3
0.055, -2.478e-3
0.056, -2.481e-3
0.057, -2.485e-3
0.058, -2.489e-3
0.059, -2.493e-3
0.060, -2.497e-3
0.061, -2.500e-3
0.062, -2.504e-3
0.063, -2.508e-3
0.064, -2.511e-3
0.065, -2.515e-3
0.066, -2.518e-3
0.067, -2.521e-3
0.068, -2.526e-3
0.069, -2.529e-3
0.070, -2.533e-3
0.071, -2.537e-3
0.072, -2.540e-3
0.073, -2.544e-3
0.074, -2.547e-3
0.075, -2.551e-3
0.076, -2.556e-3
0.077, -2.561e-3
0.078, -2.564e-3
0.079, -2.568e-3
0.080, -2.571e-3
0.081, -2.575e-3
0.082, -2.579e-3
0.083, -2.583e-3
0.084, -2.588e-3
0.085, -2.591e-3
0.086, -2.595e-3
0.087, -2.599e-3
0.088, -2.603e-3
0.089, -2.607e-3
0.090, -2.611e-3
0.091, -2.614e-3
0.092, -2.619e-3
0.093, -2.622e-3
0.094, -2.626e-3
0.095, -2.631e-3
0.096, -2.634e-3
0.097, -2.638e-3
0.098, -2.642e-3
0.099, -2.646e-3
0.100, -2.651e-3
0.101, -2.654e-3
0.102, -2.658e-3
0.103, -2.662e-3
0.104, -2.665e-3
0.105, -2.669e-3
0.106, -2.672e-3
0.107, -2.676e-3
0.108, -2.680e-3
0.109, -2.684e-3
0.110, -2.688e-3
0.111, -2.692e-3
0.112, -2.695e-3
0.113, -2.699e-3
0.114, -2.702e-3
0.115, -2.706e-3
0.116, -2.710e-3
0.117, -2.713e-3
0.118, -2.717e-3
0.119, -2.721e-3
0.120, -2.725e-3
0.121, -2.729e-3
0.122, -2.733e-3
0.123, -2.736e-3
0.124, -2.741e-3
0.125, -2.744e-3
0.126, -2.748e-3
0.127, -2.753e-3
0.128, -2.756e-3
0.129, -2.761e-3
0.130, -2.765e-3
0.131, -2.768e-3
0.132, -2.773e-3
0.133, -2.776e-3
0.134, -2.781e-3
0.135, -2.785e-3
0.136, -2.789e-3
0.137, -2.793e-3
0.138, -2.797e-3
0.139, -2.801e-3
0.140, -2.806e-3
0.141, -2.809e-3
0.142, -2.814e-3
0.143, -2.818e-3
0.144, -2.822e-3
0.145, -2.826e-3
0.146, -2.831e-3
0.147, -2.835e-3
0.148, -2.840e-3
0.149, -2.844e-3
0.150, -2.848e-3
0.151, -2.853e-3
0.152, -2.857e-3
0.153, -2.862e-3
0.154, -2.867e-3
0.155, -2.871e-3
0.156, -2.876e-3
0.157, -2.876e-3
0.158, -2.881e-3
0.159, -2.887e-3
0.160, -2.892e-3
0.161, -2.897e-3
0.162, -2.902e-3
0.163, -2.907e-3
0.164, -2.913e-3
0.165, -2.917e-3
0.166, -2.922e-3
0.167, -2.928e-3
0.168, -2.932e-3
0.169, -2.938e-3
0.170, -2.943e-3
0.171, -2.948e-3
0.172, -2.953e-3
0.173, -2.958e-3
0.174, -2.963e-3
0.175, -2.969e-3
0.176, -2.973e-3
0.177, -2.979e-3
0.178, -2.984e-3
0.179, -2.989e-3
0.180, -2.995e-3
0.181, -3.000e-3
0.182, -3.006e-3
0.183, -3.012e-3
0.184, -3.015e-3
0.185, -3.022e-3
0.186, -3.028e-3
0.187, -3.034e-3
0.188, -3.040e-3
0.189, -3.043e-3
0.190, -3.049e-3
0.191, -3.055e-3
0.192, -3.061e-3
0.193, -3.068e-3
0.194, -3.074e-3
0.195, -3.077e-3
0.196, -3.083e-3
0.197, -3.089e-3
0.198, -3.095e-3
0.199, -3.104e-3
0.200, -3.107e-3
0.201, -3.114e-3
0.202, -3.120e-3
0.203, -3.126e-3
0.204, -3.132e-3
0.205, -3.138e-3
0.206, -3.144e-3
0.207, -3.150e-3
0.208, -3.157e-3
0.209, -3.163e-3
0.210, -3.169e-3
0.211, -3.175e-3
0.212, -3.181e-3
0.213, -3.187e-3
0.214, -3.193e-3
0.215, -3.203e-3
0.216, -3.206e-3
0.217, -3.215e-3
0.218, -3.221e-3
0.219, -3.227e-3
0.220, -3.233e-3
0.221, -3.239e-3
0.222, -3.249e-3
0.223, -3.255e-3
0.224, -3.261e-3
0.225, -3.267e-3
0.226, -3.276e-3
0.227, -3.285e-3
0.228, -3.292e-3
0.229, -3.298e-3
0.230, -3.304e-3
0.231, -3.313e-3
0.232, -3.319e-3
0.233, -3.325e-3
0.234, -3.331e-3
0.235, -3.341e-3
0.236, -3.344e-3
0.237, -3.353e-3
0.238, -3.359e-3
0.239, -3.365e-3
0.240, -3.371e-3
0.241, -3.377e-3
0.242, -3.387e-3
0.243, -3.393e-3
0.244, -3.402e-3
0.245, -3.408e-3
0.246, -3.414e-3
0.247, -3.420e-3
0.248, -3.427e-3
0.249, -3.436e-3
0.250, -3.442e-3
0.251, -3.448e-3
0.252, -3.457e-3
0.253, -3.463e-3
0.254, -3.469e-3
0.255, -3.479e-3
0.256, -3.485e-3
0.257, -3.491e-3
0.258, -3.497e-3
0.259, -3.503e-3
0.260, -3.509e-3
0.261, -3.519e-3
0.262, -3.528e-3
0.263, -3.534e-3
0.264, -3.540e-3
0.265, -3.546e-3
0.266, -3.552e-3
0.267, -3.558e-3
0.268, -3.565e-3
0.269, -3.571e-3
0.270, -3.577e-3
0.271, -3.586e-3
0.272, -3.589e-3
0.273, -3.598e-3
0.274, -3.604e-3
0.275, -3.611e-3
0.276, -3.617e-3
0.277, -3.641e-3
0.278, -3.660e-3
0.279, -3.666e-3
0.280, -3.672e-3
0.281, -3.675e-3
0.282, -3.684e-3
0.283, -3.687e-3
0.284, -3.693e-3
0.285, -3.697e-3
0.286, -3.703e-3
0.287, -3.709e-3
0.288, -3.712e-3
0.289, -3.718e-3
0.290, -3.724e-3
0.291, -3.727e-3
0.292, -3.733e-3
0.293, -3.736e-3
0.294, -3.743e-3
0.295, -3.749e-3
0.296, -3.752e-3
0.297, -3.755e-3
0.298, -3.761e-3
0.299, -3.764e-3
0.300, -3.770e-3
0.301, -3.776e-3
0.302, -3.789e-3
0.303, -3.795e-3
0.304, -3.798e-3
0.305, -3.804e-3
0.306, -3.810e-3
0.307, -3.819e-3
0.308, -3.822e-3
0.309, -3.828e-3
0.310, -3.832e-3
0.311, -3.835e-3
0.312, -3.841e-3
0.313, -3.847e-3
0.314, -3.850e-3
0.315, -3.853e-3
0.316, -3.859e-3
0.317, -3.862e-3
0.318, -3.868e-3
0.319, -3.871e-3
0.320, -3.878e-3
0.321, -3.887e-3
0.322, -3.890e-3
0.323, -3.896e-3
0.324, -3.899e-3
0.325, -3.902e-3
0.326, -3.908e-3
0.327, -3.911e-3
0.328, -3.914e-3
0.329, -3.920e-3
0.330, -3.924e-3
0.331, -3.930e-3
0.332, -3.933e-3
0.333, -3.936e-3
0.334, -3.942e-3
0.335, -3.945e-3
0.336, -3.948e-3
0.337, -3.954e-3
0.338, -3.957e-3
0.339, -3.963e-3
0.340, -3.967e-3
0.341, -3.973e-3
0.342, -3.976e-3
0.343, -3.982e-3
0.344, -3.985e-3
0.345, -3.988e-3
0.346, -3.994e-3
0.347, -3.997e-3
0.348, -4.000e-3
0.349, -4.006e-3
0.350, -4.009e-3
0.351, -4.013e-3
0.352, -4.019e-3
0.353, -4.022e-3
0.354, -4.025e-3
0.355, -4.028e-3
0.356, -4.034e-3
0.357, -4.037e-3
0.358, -4.040e-3
0.359, -4.046e-3
0.360, -4.049e-3
0.361, -4.052e-3
0.362, -4.059e-3
0.363, -4.062e-3
0.364, -4.065e-3
0.365, -4.071e-3
0.366, -4.074e-3
0.367, -4.080e-3
0.368, -4.083e-3
0.369, -4.086e-3
0.370, -4.089e-3
0.371, -4.092e-3
0.372, -4.098e-3
0.373, -4.102e-3
0.374, -4.098e-3
0.375, -4.102e-3
0.376, -4.108e-3
0.377, -4.114e-3
0.378, -4.120e-3
0.379, -4.123e-3
0.380, -4.129e-3
0.381, -4.135e-3
0.382, -4.138e-3
0.383, -4.144e-3
0.384, -4.148e-3
0.385, -4.154e-3
0.386, -4.157e-3
0.387, -4.157e-3
0.388, -4.163e-3
0.389, -4.166e-3
0.390, -4.169e-3
0.391, -4.175e-3
0.392, -4.178e-3
0.393, -4.181e-3
0.394, -4.184e-3
0.395, -4.187e-3
0.396, -4.190e-3
0.397, -4.194e-3
0.398, -4.197e-3
0.399, -4.203e-3
0.400, -4.206e-3
0.401, -4.206e-3
0.402, -4.209e-3
0.403, -4.212e-3
0.404, -4.215e-3
0.405, -4.218e-3
0.406, -4.221e-3
0.407, -4.224e-3
0.408, -4.227e-3
0.409, -4.233e-3
0.410, -4.237e-3
0.411, -4.240e-3
0.412, -4.240e-3
0.413, -4.243e-3
0.414, -4.246e-3
0.415, -4.249e-3
0.416, -4.252e-3
0.417, -4.255e-3
0.418, -4.258e-3
0.419, -4.261e-3
0.420, -4.264e-3
0.421, -4.264e-3
0.422, -4.267e-3
0.423, -4.276e-3
0.424, -4.279e-3
0.425, -4.279e-3
0.426, -4.283e-3
0.427, -4.286e-3
0.428, -4.286e-3
0.429, -4.289e-3
0.430, -4.289e-3
0.431, -4.292e-3
0.432, -4.292e-3
0.433, -4.295e-3
0.434, -4.298e-3
0.435, -4.298e-3
0.436, -4.301e-3
0.437, -4.301e-3
0.438, -4.304e-3
0.439, -4.307e-3
0.440, -4.307e-3
0.441, -4.316e-3
0.442, -4.316e-3
0.443, -4.316e-3
0.444, -4.319e-3
0.445, -4.319e-3
0.446, -4.322e-3
0.447, -4.325e-3
0.448, -4.325e-3
0.449, -4.325e-3
0.450, -4.329e-3
0.451, -4.325e-3
0.452, -4.329e-3
0.453, -4.329e-3
0.454, -4.329e-3
0.455, -4.332e-3
0.456, -4.332e-3
0.457, -4.335e-3
0.458, -4.335e-3
0.459, -4.338e-3
0.460, -4.338e-3
0.461, -4.341e-3
0.462, -4.341e-3
0.463, -4.344e-3
0.464, -4.347e-3
0.465, -4.347e-3
0.466, -4.347e-3
0.467, -4.350e-3
0.468, -4.353e-3
0.469, -4.353e-3
0.470, -4.353e-3
0.471, -4.353e-3
0.472, -4.353e-3
0.473, -4.356e-3
0.474, -4.356e-3
0.475, -4.359e-3
0.476, -4.359e-3
0.477, -4.362e-3
0.478, -4.362e-3
0.479, -4.362e-3
0.480, -4.365e-3
0.481, -4.365e-3
0.482, -4.365e-3
0.483, -4.365e-3
0.484, -4.365e-3
0.485, -4.365e-3
0.486, -4.365e-3
0.487, -4.368e-3
0.488, -4.365e-3
0.489, -4.365e-3
0.490, -4.365e-3
0.491, -4.365e-3
0.492, -4.365e-3
0.493, -4.368e-3
0.494, -4.365e-3
0.495, -4.362e-3
0.496, -4.362e-3
0.497, -4.362e-3
0.498, -4.362e-3
0.499, -4.362e-3
0.500, -4.362e-3
0.501, -4.362e-3
0.502, -4.359e-3
0.503, -4.359e-3
0.504, -4.359e-3
0.505, -4.359e-3
0.506, -4.359e-3
0.507, -4.359e-3
0.508, -4.356e-3
0.509, -4.356e-3
0.510, -4.356e-3
0.511, -4.356e-3
0.512, -4.362e-3
0.513, -4.362e-3
0.514, -4.359e-3
0.515, -4.359e-3
0.516, -4.359e-3
0.517, -4.359e-3
0.518, -4.359e-3
0.519, -4.356e-3
0.520, -4.356e-3
0.521, -4.353e-3
0.522, -4.353e-3
0.523, -4.353e-3
0.524, -4.350e-3
0.525, -4.347e-3
0.526, -4.347e-3
0.527, -4.347e-3
0.528, -4.344e-3
0.529, -4.344e-3
0.530, -4.341e-3
0.531, -4.341e-3
0.532, -4.341e-3
0.533, -4.338e-3
0.534, -4.338e-3
0.535, -4.335e-3
0.536, -4.335e-3
0.537, -4.335e-3
0.538, -4.332e-3
0.539, -4.332e-3
0.540, -4.329e-3
0.541, -4.325e-3
0.542, -4.325e-3
0.543, -4.322e-3
0.544, -4.322e-3
0.545, -4.319e-3
0.546, -4.319e-3
0.547, -4.316e-3
0.548, -4.319e-3
0.549, -4.316e-3
0.550, -4.316e-3
0.551, -4.316e-3
0.552, -4.316e-3
0.553, -4.313e-3
0.554, -4.313e-3
0.555, -4.310e-3
0.556, -4.310e-3
0.557, -4.310e-3
0.558, -4.307e-3
0.559, -4.310e-3
0.560, -4.310e-3
0.561, -4.316e-3
0.562, -4.319e-3
0.563, -4.322e-3
0.564, -4.329e-3
0.565, -4.332e-3
0.566, -4.335e-3
0.567, -4.338e-3
0.568, -4.338e-3
0.569, -4.338e-3
0.570, -4.338e-3
0.571, -4.335e-3
0.572, -4.335e-3
0.573, -4.335e-3
0.574, -4.332e-3
0.575, -4.332e-3
0.576, -4.329e-3
0.577, -4.329e-3
0.578, -4.325e-3
0.579, -4.325e-3
0.580, -4.322e-3
0.581, -4.319e-3
0.582, -4.319e-3
0.583, -4.319e-3
0.584, -4.316e-3
0.585, -4.316e-3
0.586, -4.313e-3
0.587, -4.313e-3
0.588, -4.313e-3
0.589, -4.313e-3
0.590, -4.313e-3
0.591, -4.313e-3
0.592, -4.310e-3
0.593, -4.310e-3
0.594, -4.310e-3
0.595, -4.310e-3
0.596, -4.310e-3
0.597, -4.307e-3
0.598, -4.307e-3
0.599, -4.307e-3
0.600, -4.304e-3
0.601, -4.304e-3
0.602, -4.304e-3
0.603, -4.304e-3
0.604, -4.298e-3
0.605, -4.298e-3
0.606, -4.298e-3
0.607, -4.301e-3
0.608, -4.298e-3
0.609, -4.301e-3
0.610, -4.301e-3
0.611, -4.301e-3
0.612, -4.301e-3
0.613, -4.301e-3
0.614, -4.301e-3
0.615, -4.301e-3
0.616, -4.301e-3
0.617, -4.301e-3
0.618, -4.301e-3
0.619, -4.301e-3
0.620, -4.298e-3
0.621, -4.298e-3
0.622, -4.298e-3
0.623, -4.298e-3
0.624, -4.298e-3
0.625, -4.298e-3
0.626, -4.295e-3
0.627, -4.295e-3
0.628, -4.298e-3
0.629, -4.295e-3
0.630, -4.295e-3
0.631, -4.298e-3
0.632, -4.298e-3
0.633, -4.298e-3
0.634, -4.295e-3
0.635, -4.298e-3
0.636, -4.298e-3
0.637, -4.295e-3
0.638, -4.295e-3
0.639, -4.295e-3
0.640, -4.298e-3
0.641, -4.298e-3
0.642, -4.298e-3
0.643, -4.298e-3
0.644, -4.295e-3
0.645, -4.295e-3
0.646, -4.298e-3
0.647, -4.298e-3
0.648, -4.298e-3
0.649, -4.298e-3
0.650, -4.301e-3
0.651, -4.304e-3
0.652, -4.304e-3
0.653, -4.304e-3
0.654, -4.304e-3
0.655, -4.310e-3
0.656, -4.310e-3
0.657, -4.319e-3
0.658, -4.319e-3
0.659, -4.319e-3
0.660, -4.322e-3
0.661, -4.322e-3
0.662, -4.322e-3
0.663, -4.322e-3
0.664, -4.322e-3
0.665, -4.322e-3
0.666, -4.322e-3
0.667, -4.322e-3
0.668, -4.322e-3
0.669, -4.322e-3
0.670, -4.322e-3
0.671, -4.322e-3
0.672, -4.322e-3
0.673, -4.322e-3
0.674, -4.322e-3
0.675, -4.322e-3
0.676, -4.322e-3
0.677, -4.322e-3
0.678, -4.322e-3
0.679, -4.322e-3
0.680, -4.322e-3
0.681, -4.322e-3
0.682, -4.325e-3
0.683, -4.325e-3
0.684, -4.325e-3
0.685, -4.325e-3
0.686, -4.329e-3
0.687, -4.329e-3
0.688, -4.329e-3
0.689, -4.329e-3
0.690, -4.332e-3
0.691, -4.332e-3
0.692, -4.332e-3
0.693, -4.329e-3
0.694, -4.329e-3
0.695, -4.332e-3
0.696, -4.332e-3
0.697, -4.335e-3
0.698, -4.335e-3
0.699, -4.335e-3
0.700, -4.335e-3
0.701, -4.338e-3
0.702, -4.338e-3
0.703, -4.338e-3
0.704, -4.338e-3
0.705, -4.338e-3
0.706, -4.335e-3
0.707, -4.335e-3
0.708, -4.335e-3
0.709, -4.335e-3
0.710, -4.338e-3
0.711, -4.338e-3
0.712, -4.338e-3
0.713, -4.338e-3
0.714, -4.338e-3
0.715, -4.338e-3
0.716, -4.341e-3
0.717, -4.341e-3
0.718, -4.347e-3
0.719, -4.350e-3
0.720, -4.350e-3
0.721, -4.347e-3
0.722, -4.347e-3
0.723, -4.350e-3
0.724, -4.350e-3
0.725, -4.350e-3
0.726, -4.350e-3
0.727, -4.353e-3
0.728, -4.353e-3
0.729, -4.353e-3
0.730, -4.356e-3
0.731, -4.362e-3
0.732, -4.365e-3
0.733, -4.362e-3
0.734, -4.362e-3
0.735, -4.362e-3
0.736, -4.362e-3
0.737, -4.365e-3
0.738, -4.362e-3
0.739, -4.362e-3
0.740, -4.365e-3
0.741, -4.365e-3
0.742, -4.365e-3
0.743, -4.368e-3
0.744, -4.372e-3
0.745, -4.368e-3
0.746, -4.368e-3
0.747, -4.368e-3
0.748, -4.368e-3
0.749, -4.368e-3
0.750, -4.372e-3
0.751, -4.368e-3
0.752, -4.368e-3
0.753, -4.368e-3
0.754, -4.368e-3
0.755, -4.368e-3
0.756, -4.368e-3
0.757, -4.368e-3
0.758, -4.365e-3
0.759, -4.365e-3
0.760, -4.365e-3
0.761, -4.365e-3
0.762, -4.365e-3
0.763, -4.365e-3
0.764, -4.362e-3
0.765, -4.362e-3
0.766, -4.359e-3
0.767, -4.356e-3
0.768, -4.356e-3
0.769, -4.356e-3
0.770, -4.356e-3
0.771, -4.356e-3
0.772, -4.359e-3
0.773, -4.356e-3
0.774, -4.356e-3
0.775, -4.359e-3
0.776, -4.356e-3
0.777, -4.356e-3
0.778, -4.356e-3
0.779, -4.356e-3
0.780, -4.350e-3
0.781, -4.347e-3
0.782, -4.347e-3
0.783, -4.347e-3
0.784, -4.347e-3
0.785, -4.347e-3
0.786, -4.344e-3
0.787, -4.341e-3
0.788, -4.341e-3
0.789, -4.341e-3
0.790, -4.341e-3
0.791, -4.344e-3
0.792, -4.344e-3
0.793, -4.344e-3
0.794, -4.344e-3
0.795, -4.344e-3
0.796, -4.344e-3
0.797, -4.344e-3
0.798, -4.347e-3
0.799, -4.347e-3
0.800, -4.283e-3
0.799, -4.151e-3
0.798, -4.049e-3
0.797, -3.960e-3
0.796, -3.878e-3
0.795, -3.804e-3
0.794, -3.730e-3
0.793, -3.666e-3
0.792, -3.601e-3
0.791, -3.537e-3
0.790, -3.479e-3
0.789, -3.420e-3
0.788, -3.365e-3
0.787, -3.313e-3
0.786, -3.261e-3
0.785, -3.209e-3
0.784, -3.160e-3
0.783, -3.110e-3
0.782, -3.064e-3
0.781, -3.018e-3
0.780, -2.972e-3
0.779, -2.926e-3
0.778, -2.883e-3
0.777, -2.837e-3
0.776, -2.798e-3
0.775, -2.755e-3
0.774, -2.715e-3
0.773, -2.675e-3
0.772, -2.635e-3
0.771, -2.598e-3
0.770, -2.561e-3
0.769, -2.524e-3
0.768, -2.488e-3
0.767, -2.457e-3
0.766, -2.423e-3
0.765, -2.389e-3
0.764, -2.356e-3
0.763, -2.322e-3
0.762, -2.288e-3
0.761, -2.258e-3
0.760, -2.227e-3
0.759, -2.193e-3
0.758, -2.162e-3
0.757, -2.132e-3
0.756, -2.104e-3
0.755, -2.077e-3
0.754, -2.049e-3
0.753, -2.021e-3
0.752, -1.994e-3
0.751, -1.966e-3
0.750, -1.938e-3
0.749, -1.914e-3
0.748, -1.886e-3
0.747, -1.859e-3
0.746, -1.831e-3
0.745, -1.807e-3
0.744, -1.782e-3
0.743, -1.754e-3
0.742, -1.733e-3
0.741, -1.708e-3
0.740, -1.681e-3
0.739, -1.659e-3
0.738, -1.635e-3
0.737, -1.610e-3
0.736, -1.586e-3
0.735, -1.564e-3
0.734, -1.540e-3
0.733, -1.518e-3
0.732, -1.494e-3
0.731, -1.472e-3
0.730, -1.451e-3
0.729, -1.429e-3
0.728, -1.408e-3
0.727, -1.386e-3
0.726, -1.361e-3
0.725, -1.340e-3
0.724, -1.319e-3
0.723, -1.299e-3
0.722, -1.278e-3
0.721, -1.259e-3
0.720, -1.240e-3
0.719, -1.221e-3
0.718, -1.202e-3
0.717, -1.183e-3
0.716, -1.164e-3
0.715, -1.147e-3
0.714, -1.129e-3
0.713, -1.111e-3
0.712, -1.094e-3
0.711, -1.077e-3
0.710, -1.059e-3
0.709, -1.042e-3
0.708, -1.025e-3
0.707, -1.009e-3
0.706, -9.928e-4
0.705, -9.768e-4
0.704, -9.606e-4
0.703, -9.443e-4
0.702, -9.290e-4
0.701, -9.133e-4
0.700, -8.977e-4
0.699, -8.823e-4
0.698, -8.670e-4
0.697, -8.517e-4
0.696, -8.372e-4
0.695, -8.225e-4
0.694, -8.081e-4
0.693, -7.934e-4
0.692, -7.780e-4
0.691, -7.633e-4
0.690, -7.489e-4
0.689, -7.348e-4
0.688, -7.210e-4
0.687, -7.065e-4
0.686, -6.927e-4
0.685, -6.786e-4
0.684, -6.648e-4
0.683, -6.519e-4
0.682, -6.384e-4
0.681, -6.265e-4
0.680, -6.142e-4
0.679, -6.007e-4
0.678, -5.875e-4
0.677, -5.740e-4
0.676, -5.605e-4
0.675, -5.501e-4
0.674, -5.375e-4
0.673, -5.249e-4
0.672, -5.126e-4
0.671, -5.004e-4
0.670, -4.887e-4
0.669, -4.767e-4
0.668, -4.648e-4
0.667, -4.534e-4
0.666, -4.414e-4
0.665, -4.298e-4
0.664, -4.187e-4
0.663, -4.068e-4
0.662, -3.960e-4
0.661, -3.850e-4
0.660, -3.733e-4
0.659, -3.617e-4
0.658, -3.503e-4
0.657, -3.393e-4
0.656, -3.288e-4
0.655, -3.178e-4
0.654, -3.074e-4
0.653, -2.963e-4
0.652, -2.850e-4
0.651, -2.748e-4
0.650, -2.644e-4
0.649, -2.546e-4
0.648, -2.451e-4
0.647, -2.347e-4
0.646, -2.245e-4
0.645, -2.150e-4
0.644, -2.049e-4
0.643, -1.960e-4
0.642, -1.859e-4
0.641, -1.757e-4
0.640, -1.672e-4
0.639, -1.567e-4
0.638, -1.469e-4
0.637, -1.374e-4
0.636, -1.273e-4
0.635, -1.175e-4
0.634, -1.075e-4
0.633, -9.802e-5
0.632, -8.866e-5
0.631, -7.915e-5
0.630, -7.001e-5
0.629, -6.031e-5
0.628, -5.062e-5
0.627, -4.151e-5
0.626, -3.224e-5
0.625, -2.297e-5
0.624, -1.466e-5
0.623, -4.995e-6
0.622, 4.333e-6
0.621, 1.327e-5
0.620, 2.241e-5
0.619, 3.084e-5
0.618, 3.974e-5
0.617, 4.784e-5
0.616, 5.609e-5
0.615, 6.490e-5
0.614, 7.352e-5
0.613, 8.156e-5
0.612, 9.033e-5
0.611, 9.828e-5
0.610, 1.067e-4
0.609, 1.149e-4
0.608, 1.232e-4
0.607, 1.314e-4
0.606, 1.378e-4
0.605, 1.445e-4
0.604, 1.605e-4
0.603, 1.665e-4
0.602, 1.741e-4
0.601, 1.816e-4
0.600, 1.888e-4
0.599, 1.968e-4
0.598, 2.040e-4
0.597, 2.113e-4
0.596, 2.195e-4
0.595, 2.273e-4
0.594, 2.350e-4
0.593, 2.427e-4
0.592, 2.498e-4
0.591, 2.577e-4
0.590, 2.649e-4
0.589, 2.727e-4
0.588, 2.808e-4
0.587, 2.879e-4
0.586, 2.955e-4
0.585, 3.029e-4
0.584, 3.099e-4
0.583, 3.182e-4
0.582, 3.259e-4
0.581, 3.330e-4
0.580, 3.409e-4
0.579, 3.483e-4
0.578, 3.557e-4
0.577, 3.630e-4
0.576, 3.701e-4
0.575, 3.778e-4
0.574, 3.848e-4
0.573, 3.916e-4
0.572, 3.989e-4
0.571, 4.057e-4
0.570, 4.137e-4
0.569, 4.210e-4
0.568, 4.281e-4
0.567, 4.357e-4
0.566, 4.428e-4
0.565, 4.496e-4
0.564, 4.572e-4
0.563, 4.646e-4
0.562, 4.716e-4
0.561, 4.796e-4
0.560, 4.867e-4
0.559, 4.940e-4
0.558, 5.011e-4
0.557, 5.085e-4
0.556, 5.161e-4
0.555, 5.229e-4
0.554, 5.302e-4
0.553, 5.379e-4
0.552, 5.447e-4
0.551, 5.520e-4
0.550, 5.594e-4
0.549, 5.664e-4
0.548, 5.738e-4
0.547, 5.806e-4
0.546, 5.876e-4
0.545, 5.950e-4
0.544, 6.020e-4
0.543, 6.091e-4
0.542, 6.155e-4
0.541, 6.223e-4
0.540, 6.300e-4
0.539, 6.361e-4
0.538, 6.441e-4
0.537, 6.511e-4
0.536, 6.579e-4
0.535, 6.659e-4
0.534, 6.705e-4
0.533, 6.775e-4
0.532, 6.852e-4
0.531, 6.926e-4
0.530, 6.999e-4
0.529, 7.073e-4
0.528, 7.140e-4
0.527, 7.217e-4
0.526, 7.288e-4
0.525, 7.361e-4
0.524, 7.438e-4
0.523, 7.505e-4
0.522, 7.582e-4
0.521, 7.653e-4
0.520, 7.723e-4
0.519, 7.800e-4
0.518, 7.877e-4
0.517, 7.944e-4
0.516, 8.021e-4
0.515, 8.088e-4
0.514, 8.162e-4
0.513, 8.236e-4
0.512, 8.318e-4
0.511, 8.395e-4
0.510, 8.469e-4
0.509, 8.546e-4
0.508, 8.628e-4
0.507, 8.699e-4
0.506, 8.782e-4
0.505, 8.862e-4
0.504, 8.932e-4
0.503, 9.012e-4
0.502, 9.086e-4
0.501, 9.159e-4
0.500, 9.236e-4
0.499, 9.306e-4
0.498, 9.386e-4
0.497, 9.463e-4
0.496, 9.533e-4
0.495, 9.613e-4
0.494, 9.684e-4
0.493, 9.767e-4
0.492, 9.843e-4
0.491, 9.914e-4
0.490, 9.988e-4
0.489, 1.007e-3
0.488, 1.013e-3
0.487, 1.022e-3
0.486, 1.029e-3
0.485, 1.036e-3
0.484, 1.044e-3
0.483, 1.052e-3
0.482, 1.060e-3
0.481, 1.067e-3
0.480, 1.075e-3
0.479, 1.083e-3
0.478, 1.090e-3
0.477, 1.098e-3
0.476, 1.106e-3
0.475, 1.113e-3
0.474, 1.121e-3
0.473, 1.129e-3
0.472, 1.136e-3
0.471, 1.144e-3
0.470, 1.152e-3
0.469, 1.159e-3
0.468, 1.167e-3
0.467, 1.175e-3
0.466, 1.183e-3
0.465, 1.190e-3
0.464, 1.198e-3
0.463, 1.206e-3
0.462, 1.213e-3
0.461, 1.221e-3
0.460, 1.229e-3
0.459, 1.237e-3
0.458, 1.245e-3
0.457, 1.252e-3
0.456, 1.260e-3
0.455, 1.268e-3
0.454, 1.276e-3
0.453, 1.284e-3
0.452, 1.292e-3
0.451, 1.299e-3
0.450, 1.308e-3
0.449, 1.316e-3
0.448, 1.323e-3
0.447, 1.332e-3
0.446, 1.340e-3
0.445, 1.348e-3
0.444, 1.356e-3
0.443, 1.364e-3
0.442, 1.372e-3
0.441, 1.380e-3
0.440, 1.388e-3
0.439, 1.396e-3
0.438, 1.404e-3
0.437, 1.412e-3
0.436, 1.421e-3
0.435, 1.429e-3
0.434, 1.438e-3
0.433, 1.445e-3
0.432, 1.453e-3
0.431, 1.462e-3
0.430, 1.469e-3
0.429, 1.478e-3
0.428, 1.486e-3
0.427, 1.494e-3
0.426, 1.502e-3
0.425, 1.510e-3
0.424, 1.518e-3
0.423, 1.526e-3
0.422, 1.534e-3
0.421, 1.542e-3
0.420, 1.550e-3
0.419, 1.558e-3
0.418, 1.566e-3
0.417, 1.574e-3
0.416, 1.583e-3
0.415, 1.591e-3
0.414, 1.597e-3
0.413, 1.605e-3
0.412, 1.613e-3
0.411, 1.621e-3
0.410, 1.631e-3
0.409, 1.641e-3
0.408, 1.648e-3
0.407, 1.656e-3
0.406, 1.664e-3
0.405, 1.672e-3
0.404, 1.680e-3
0.403, 1.688e-3
0.402, 1.696e-3
0.401, 1.704e-3
0.400, 1.712e-3
0.399, 1.721e-3
0.398, 1.728e-3
0.397, 1.737e-3
0.396, 1.746e-3
0.395, 1.753e-3
0.394, 1.762e-3
0.393, 1.770e-3
0.392, 1.778e-3
0.391, 1.787e-3
0.390, 1.796e-3
0.389, 1.804e-3
0.388, 1.813e-3
0.387, 1.821e-3
0.386, 1.830e-3
0.385, 1.839e-3
0.384, 1.846e-3
0.383, 1.856e-3
0.382, 1.864e-3
0.381, 1.872e-3
0.380, 1.880e-3
0.379, 1.888e-3
0.378, 1.897e-3
0.377, 1.906e-3
0.376, 1.913e-3
0.375, 1.922e-3
0.374, 1.930e-3
0.373, 1.939e-3
0.372, 1.947e-3
0.371, 1.955e-3
0.370, 1.964e-3
0.369, 1.973e-3
0.368, 1.980e-3
0.367, 1.989e-3
0.366, 1.997e-3
0.365, 2.005e-3
0.364, 2.014e-3
0.363, 2.022e-3
0.362, 2.030e-3
0.361, 2.038e-3
0.360, 2.045e-3
0.359, 2.055e-3
0.358, 2.062e-3
0.357, 2.070e-3
0.356, 2.079e-3
0.355, 2.086e-3
0.354, 2.094e-3
0.353, 2.102e-3
0.352, 2.110e-3
0.351, 2.118e-3
0.350, 2.125e-3
0.349, 2.133e-3
0.348, 2.140e-3
0.347, 2.147e-3
0.346, 2.155e-3
0.345, 2.163e-3
0.344, 2.170e-3
0.343, 2.178e-3
0.342, 2.187e-3
0.341, 2.194e-3
0.340, 2.202e-3
0.339, 2.209e-3
0.338, 2.217e-3
0.337, 2.224e-3
0.336, 2.230e-3
0.335, 2.238e-3
0.334, 2.245e-3
0.333, 2.252e-3
0.332, 2.259e-3
0.331, 2.266e-3
0.330, 2.274e-3
0.329, 2.281e-3
0.328, 2.288e-3
0.327, 2.296e-3
0.326, 2.303e-3
0.325, 2.310e-3
0.324, 2.317e-3
0.323, 2.324e-3
0.322, 2.331e-3
0.321, 2.338e-3
0.320, 2.345e-3
0.319, 2.353e-3
0.318, 2.359e-3
0.317, 2.367e-3
0.316, 2.374e-3
0.315, 2.380e-3
0.314, 2.388e-3
0.313, 2.395e-3
0.312, 2.402e-3
0.311, 2.409e-3
0.310, 2.415e-3
0.309, 2.422e-3
0.308, 2.429e-3
0.307, 2.437e-3
0.306, 2.444e-3
0.305, 2.450e-3
0.304, 2.456e-3
0.303, 2.464e-3
0.302, 2.470e-3
0.301, 2.477e-3
0.300, 2.484e-3
0.299, 2.490e-3
0.298, 2.497e-3
0.297, 2.503e-3
0.296, 2.510e-3
0.295, 2.517e-3
0.294, 2.523e-3
0.293, 2.529e-3
0.292, 2.536e-3
0.291, 2.542e-3
0.290, 2.548e-3
0.289, 2.555e-3
0.288, 2.561e-3
0.287, 2.568e-3
0.286, 2.574e-3
0.285, 2.580e-3
0.284, 2.586e-3
0.283, 2.592e-3
0.282, 2.598e-3
0.281, 2.605e-3
0.280, 2.610e-3
0.279, 2.616e-3
0.278, 2.622e-3
0.277, 2.627e-3
0.276, 2.633e-3
0.275, 2.639e-3
0.274, 2.645e-3
0.273, 2.651e-3
0.272, 2.653e-3
0.271, 2.660e-3
0.270, 2.665e-3
0.269, 2.672e-3
0.268, 2.678e-3
0.267, 2.683e-3
0.266, 2.690e-3
0.265, 2.695e-3
0.264, 2.701e-3
0.263, 2.707e-3
0.262, 2.713e-3
0.261, 2.718e-3
0.260, 2.725e-3
0.259, 2.730e-3
0.258, 2.736e-3
0.257, 2.742e-3
0.256, 2.749e-3
0.255, 2.755e-3
0.254, 2.761e-3
0.253, 2.766e-3
0.252, 2.772e-3
0.251, 2.777e-3
0.250, 2.784e-3
0.249, 2.790e-3
0.248, 2.795e-3
0.247, 2.801e-3
0.246, 2.807e-3
0.245, 2.812e-3
0.244, 2.819e-3
0.243, 2.824e-3
0.242, 2.831e-3
0.241, 2.836e-3
0.240, 2.842e-3
0.239, 2.848e-3
0.238, 2.854e-3
0.237, 2.860e-3
0.236, 2.867e-3
0.235, 2.872e-3
0.234, 2.878e-3
0.233, 2.884e-3
0.232, 2.889e-3
0.231, 2.896e-3
0.230, 2.901e-3
0.229, 2.907e-3
0.228, 2.911e-3
0.227, 2.916e-3
0.226, 2.922e-3
0.225, 2.927e-3
0.224, 2.933e-3
0.223, 2.939e-3
0.222, 2.944e-3
0.221, 2.950e-3
0.220, 2.955e-3
0.219, 2.959e-3
0.218, 2.965e-3
0.217, 2.970e-3
0.216, 2.975e-3
0.215, 2.981e-3
0.214, 2.985e-3
0.213, 2.991e-3
0.212, 2.997e-3
0.211, 3.003e-3
0.210, 3.008e-3
0.209, 3.013e-3
0.208, 3.011e-3
0.207, 3.017e-3
0.206, 3.020e-3
0.205, 3.026e-3
0.204, 3.032e-3
0.203, 3.035e-3
0.202, 3.041e-3
0.201, 3.047e-3
0.200, 3.050e-3
0.199, 3.057e-3
0.198, 3.063e-3
0.197, 3.066e-3
0.196, 3.072e-3
0.195, 3.075e-3
0.194, 3.081e-3
0.193, 3.087e-3
0.192, 3.090e-3
0.191, 3.096e-3
0.190, 3.103e-3
0.189, 3.106e-3
0.188, 3.112e-3
0.187, 3.109e-3
0.186, 3.115e-3
0.185, 3.121e-3
0.184, 3.124e-3
0.183, 3.130e-3
0.182, 3.133e-3
0.181, 3.139e-3
0.180, 3.142e-3
0.179, 3.149e-3
0.178, 3.152e-3
0.177, 3.158e-3
0.176, 3.161e-3
0.175, 3.167e-3
0.174, 3.170e-3
0.173, 3.176e-3
0.172, 3.179e-3
0.171, 3.185e-3
0.170, 3.188e-3
0.169, 3.195e-3
0.168, 3.198e-3
0.167, 3.204e-3
0.166, 3.207e-3
0.165, 3.210e-3
0.164, 3.213e-3
0.163, 3.219e-3
0.162, 3.222e-3
0.161, 3.225e-3
0.160, 3.231e-3
0.159, 3.238e-3
0.158, 3.241e-3
0.157, 3.244e-3
0.156, 3.247e-3
0.155, 3.250e-3
0.154, 3.256e-3
0.153, 3.262e-3
0.152, 3.265e-3
0.151, 3.271e-3
0.150, 3.274e-3
0.149, 3.277e-3
0.148, 3.284e-3
0.147, 3.287e-3
0.146, 3.290e-3
0.145, 3.293e-3
0.144, 3.296e-3
0.143, 3.302e-3
0.142, 3.305e-3
0.141, 3.308e-3
0.140, 3.311e-3
0.139, 3.314e-3
0.138, 3.317e-3
0.137, 3.320e-3
0.136, 3.323e-3
0.135, 3.327e-3
0.134, 3.333e-3
0.133, 3.336e-3
0.132, 3.339e-3
0.131, 3.342e-3
0.130, 3.345e-3
0.129, 3.348e-3
0.128, 3.351e-3
0.127, 3.354e-3
0.126, 3.357e-3
0.125, 3.360e-3
0.124, 3.360e-3
0.123, 3.363e-3
0.122, 3.366e-3
0.121, 3.369e-3
0.120, 3.369e-3
0.119, 3.376e-3
0.118, 3.376e-3
0.117, 3.379e-3
0.116, 3.382e-3
0.115, 3.385e-3
0.114, 3.388e-3
0.113, 3.391e-3
0.112, 3.394e-3
0.111, 3.397e-3
0.110, 3.397e-3
0.109, 3.400e-3
0.108, 3.403e-3
0.107, 3.406e-3
0.106, 3.406e-3
0.105, 3.409e-3
0.104, 3.412e-3
0.103, 3.416e-3
0.102, 3.419e-3
0.101, 3.419e-3
0.100, 3.422e-3
0.099, 3.422e-3
0.098, 3.425e-3
0.097, 3.428e-3
0.096, 3.428e-3
0.095, 3.431e-3
0.094, 3.434e-3
0.093, 3.437e-3
0.092, 3.440e-3
0.091, 3.440e-3
0.090, 3.440e-3
0.089, 3.443e-3
0.088, 3.446e-3
0.087, 3.446e-3
0.086, 3.449e-3
0.085, 3.449e-3
0.084, 3.452e-3
0.083, 3.452e-3
0.082, 3.452e-3
0.081, 3.455e-3
0.080, 3.455e-3
0.079, 3.458e-3
0.078, 3.458e-3
0.077, 3.462e-3
0.076, 3.462e-3
0.075, 3.462e-3
0.074, 3.465e-3
0.073, 3.465e-3
0.072, 3.465e-3
0.071, 3.468e-3
0.070, 3.468e-3
0.069, 3.468e-3
0.068, 3.468e-3
0.067, 3.471e-3
0.066, 3.471e-3
0.065, 3.471e-3
0.064, 3.471e-3
0.063, 3.471e-3
0.062, 3.471e-3
0.061, 3.471e-3
0.060, 3.474e-3
0.059, 3.474e-3
0.058, 3.474e-3
0.057, 3.474e-3
0.056, 3.474e-3
0.055, 3.477e-3
0.054, 3.477e-3
0.053, 3.477e-3
0.052, 3.477e-3
0.051, 3.477e-3
0.050, 3.477e-3
0.049, 3.477e-3
0.048, 3.477e-3
0.047, 3.477e-3
0.046, 3.477e-3
0.045, 3.477e-3
0.044, 3.477e-3
0.043, 3.477e-3
0.042, 3.477e-3
0.041, 3.477e-3
0.040, 3.477e-3
0.039, 3.477e-3
0.038, 3.477e-3
0.037, 3.474e-3
0.036, 3.483e-3
0.035, 3.483e-3
0.034, 3.480e-3
0.033, 3.480e-3
0.032, 3.480e-3
0.031, 3.480e-3
0.030, 3.480e-3
0.029, 3.477e-3
0.028, 3.477e-3
0.027, 3.477e-3
0.026, 3.477e-3
0.025, 3.474e-3
0.024, 3.474e-3
0.023, 3.474e-3
0.022, 3.474e-3
0.021, 3.471e-3
0.020, 3.471e-3
0.019, 3.471e-3
0.018, 3.468e-3
0.017, 3.468e-3
0.016, 3.468e-3
0.015, 3.468e-3
0.014, 3.465e-3
0.013, 3.462e-3
0.012, 3.462e-3
0.011, 3.462e-3
0.010, 3.458e-3
0.009, 3.458e-3
0.008, 3.455e-3
0.007, 3.455e-3
0.006, 3.452e-3
0.005, 3.452e-3
0.004, 3.449e-3
0.003, 3.449e-3
0.002, 3.446e-3
0.001, 3.437e-3
0.000, 3.443e-3
-0.001, 3.443e-3
-0.002, 3.440e-3
-0.003, 3.440e-3
-0.004, 3.437e-3
-0.005, 3.434e-3
-0.006, 3.434e-3
-0.007, 3.431e-3
-0.008, 3.428e-3
-0.009, 3.428e-3
-0.010, 3.425e-3
-0.011, 3.422e-3
-0.012, 3.419e-3
-0.013, 3.416e-3
-0.014, 3.416e-3
-0.015, 3.412e-3
-0.016, 3.409e-3
-0.017, 3.406e-3
-0.018, 3.403e-3
-0.019, 3.403e-3
-0.020, 3.400e-3
-0.021, 3.397e-3
-0.022, 3.394e-3
-0.023, 3.391e-3
-0.024, 3.388e-3
-0.025, 3.385e-3
-0.026, 3.382e-3
-0.027, 3.379e-3
-0.028, 3.376e-3
-0.029, 3.373e-3
-0.030, 3.373e-3
-0.031, 3.369e-3
-0.032, 3.366e-3
-0.033, 3.363e-3
-0.034, 3.360e-3
-0.035, 3.357e-3
-0.036, 3.354e-3
-0.037, 3.351e-3
-0.038, 3.348e-3
-0.039, 3.345e-3
-0.040, 3.339e-3
-0.041, 3.336e-3
-0.042, 3.333e-3
-0.043, 3.330e-3
-0.044, 3.327e-3
-0.045, 3.323e-3
-0.046, 3.320e-3
-0.047, 3.317e-3
-0.048, 3.314e-3
-0.049, 3.311e-3
-0.050, 3.308e-3
-0.051, 3.305e-3
-0.052, 3.302e-3
-0.053, 3.299e-3
-0.054, 3.296e-3
-0.055, 3.293e-3
-0.056, 3.290e-3
-0.057, 3.287e-3
-0.058, 3.284e-3
-0.059, 3.281e-3
-0.060, 3.277e-3
-0.061, 3.274e-3
-0.062, 3.271e-3
-0.063, 3.268e-3
-0.064, 3.265e-3
-0.065, 3.265e-3
-0.066, 3.262e-3
-0.067, 3.259e-3
-0.068, 3.256e-3
-0.069, 3.253e-3
-0.070, 3.250e-3
-0.071, 3.250e-3
-0.072, 3.244e-3
-0.073, 3.244e-3
-0.074, 3.241e-3
-0.075, 3.238e-3
-0.076, 3.234e-3
-0.077, 3.231e-3
-0.078, 3.231e-3
-0.079, 3.228e-3
-0.080, 3.225e-3
-0.081, 3.222e-3
-0.082, 3.219e-3
-0.083, 3.219e-3
-0.084, 3.216e-3
-0.085, 3.213e-3
-0.086, 3.213e-3
-0.087, 3.210e-3
-0.088, 3.207e-3
-0.089, 3.207e-3
-0.090, 3.201e-3
-0.091, 3.198e-3
-0.092, 3.198e-3
-0.093, 3.195e-3
-0.094, 3.195e-3
-0.095, 3.195e-3
-0.096, 3.192e-3
-0.097, 3.192e-3
-0.098, 3.188e-3
-0.099, 3.185e-3
-0.100, 3.185e-3
-0.101, 3.182e-3
-0.102, 3.182e-3
-0.103, 3.182e-3
-0.104, 3.182e-3
-0.105, 3.182e-3
-0.106, 3.179e-3
-0.107, 3.179e-3
-0.108, 3.179e-3
-0.109, 3.176e-3
-0.110, 3.176e-3
-0.111, 3.176e-3
-0.112, 3.173e-3
-0.113, 3.173e-3
-0.114, 3.173e-3
-0.115, 3.173e-3
-0.116, 3.170e-3
-0.117, 3.170e-3
-0.118, 3.170e-3
-0.119, 3.170e-3
-0.120, 3.170e-3
-0.121, 3.170e-3
-0.122, 3.167e-3
-0.123, 3.167e-3
-0.124, 3.167e-3
-0.125, 3.167e-3
-0.126, 3.167e-3
-0.127, 3.167e-3
-0.128, 3.167e-3
-0.129, 3.167e-3
-0.130, 3.164e-3
-0.131, 3.164e-3
-0.132, 3.164e-3
-0.133, 3.164e-3
-0.134, 3.164e-3
-0.135, 3.164e-3
-0.136, 3.164e-3
-0.137, 3.164e-3
-0.138, 3.164e-3
-0.139, 3.164e-3
-0.140, 3.164e-3
-0.141, 3.164e-3
-0.142, 3.164e-3
-0.143, 3.164e-3
-0.144, 3.164e-3
-0.145, 3.167e-3
-0.146, 3.164e-3
-0.147, 3.167e-3
-0.148, 3.167e-3
-0.149, 3.167e-3
-0.150, 3.167e-3
-0.151, 3.167e-3
-0.152, 3.167e-3
-0.153, 3.167e-3
-0.154, 3.170e-3
-0.155, 3.170e-3
-0.156, 3.170e-3
-0.157, 3.170e-3
-0.158, 3.170e-3
-0.159, 3.170e-3
-0.160, 3.173e-3
-0.161, 3.173e-3
-0.162, 3.173e-3
-0.163, 3.173e-3
-0.164, 3.173e-3
-0.165, 3.173e-3
-0.166, 3.176e-3
-0.167, 3.176e-3
-0.168, 3.176e-3
-0.169, 3.176e-3
-0.170, 3.176e-3
-0.171, 3.176e-3
-0.172, 3.179e-3
-0.173, 3.179e-3
-0.174, 3.179e-3
-0.175, 3.182e-3
-0.176, 3.182e-3
-0.177, 3.185e-3
-0.178, 3.185e-3
-0.179, 3.185e-3
-0.180, 3.188e-3
-0.181, 3.185e-3
-0.182, 3.188e-3
-0.183, 3.188e-3
-0.184, 3.188e-3
-0.185, 3.192e-3
-0.186, 3.192e-3
-0.187, 3.192e-3
-0.188, 3.195e-3
-0.189, 3.195e-3
-0.190, 3.195e-3
-0.191, 3.198e-3
-0.192, 3.198e-3
-0.193, 3.201e-3
-0.194, 3.201e-3
-0.195, 3.201e-3
-0.196, 3.204e-3
-0.197, 3.204e-3
-0.198, 3.204e-3
-0.199, 3.207e-3
-0.200, 3.207e-3
-0.201, 3.210e-3
-0.202, 3.210e-3
-0.203, 3.210e-3
-0.204, 3.213e-3
-0.205, 3.213e-3
-0.206, 3.216e-3
-0.207, 3.216e-3
-0.208, 3.219e-3
-0.209, 3.219e-3
-0.210, 3.222e-3
-0.211, 3.222e-3
-0.212, 3.225e-3
-0.213, 3.225e-3
-0.214, 3.228e-3
-0.215, 3.228e-3
-0.216, 3.231e-3
-0.217, 3.231e-3
-0.218, 3.234e-3
-0.219, 3.234e-3
-0.220, 3.238e-3
-0.221, 3.238e-3
-0.222, 3.241e-3
-0.223, 3.244e-3
-0.224, 3.244e-3
-0.225, 3.247e-3
-0.226, 3.247e-3
-0.227, 3.250e-3
-0.228, 3.250e-3
-0.229, 3.253e-3
-0.230, 3.253e-3
-0.231, 3.256e-3
-0.232, 3.256e-3
-0.233, 3.259e-3
-0.234, 3.262e-3
-0.235, 3.262e-3
-0.236, 3.265e-3
-0.237, 3.265e-3
-0.238, 3.268e-3
-0.239, 3.271e-3
-0.240, 3.271e-3
-0.241, 3.274e-3
-0.242, 3.274e-3
-0.243, 3.274e-3
-0.244, 3.277e-3
-0.245, 3.281e-3
-0.246, 3.281e-3
-0.247, 3.284e-3
-0.248, 3.287e-3
-0.249, 3.290e-3
-0.250, 3.290e-3
-0.251, 3.293e-3
-0.252, 3.296e-3
-0.253, 3.296e-3
-0.254, 3.299e-3
-0.255, 3.302e-3
-0.256, 3.305e-3
-0.257, 3.305e-3
-0.258, 3.308e-3
-0.259, 3.308e-3
-0.260, 3.311e-3
-0.261, 3.314e-3
-0.262, 3.317e-3
-0.263, 3.320e-3
-0.264, 3.320e-3
-0.265, 3.323e-3
-0.266, 3.327e-3
-0.267, 3.327e-3
-0.268, 3.333e-3
-0.269, 3.333e-3
-0.270, 3.336e-3
-0.271, 3.339e-3
-0.272, 3.342e-3
-0.273, 3.342e-3
-0.274, 3.345e-3
-0.275, 3.348e-3
-0.276, 3.351e-3
-0.277, 3.351e-3
-0.278, 3.354e-3
-0.279, 3.357e-3
-0.280, 3.357e-3
-0.281, 3.360e-3
-0.282, 3.363e-3
-0.283, 3.366e-3
-0.284, 3.369e-3
-0.285, 3.369e-3
-0.286, 3.373e-3
-0.287, 3.376e-3
-0.288, 3.376e-3
-0.289, 3.379e-3
-0.290, 3.382e-3
-0.291, 3.385e-3
-0.292, 3.388e-3
-0.293, 3.388e-3
-0.294, 3.391e-3
-0.295, 3.394e-3
-0.296, 3.397e-3
-0.297, 3.400e-3
-0.298, 3.403e-3
-0.299, 3.403e-3
-0.300, 3.406e-3
-0.301, 3.409e-3
-0.302, 3.412e-3
-0.303, 3.416e-3
-0.304, 3.419e-3
-0.305, 3.422e-3
-0.306, 3.425e-3
-0.307, 3.428e-3
-0.308, 3.431e-3
-0.309, 3.431e-3
-0.310, 3.434e-3
-0.311, 3.437e-3
-0.312, 3.440e-3
-0.313, 3.443e-3
-0.314, 3.446e-3
-0.315, 3.449e-3
-0.316, 3.452e-3
-0.317, 3.455e-3
-0.318, 3.458e-3
-0.319, 3.462e-3
-0.320, 3.462e-3
-0.321, 3.465e-3
-0.322, 3.468e-3
-0.323, 3.471e-3
-0.324, 3.474e-3
-0.325, 3.477e-3
-0.326, 3.480e-3
-0.327, 3.483e-3
-0.328, 3.486e-3
-0.329, 3.489e-3
-0.330, 3.492e-3
-0.331, 3.495e-3
-0.332, 3.498e-3
-0.333, 3.501e-3
-0.334, 3.504e-3
-0.335, 3.508e-3
-0.336, 3.508e-3
-0.337, 3.511e-3
-0.338, 3.514e-3
-0.339, 3.520e-3
-0.340, 3.523e-3
-0.341, 3.526e-3
-0.342, 3.529e-3
-0.343, 3.529e-3
-0.344, 3.532e-3
-0.345, 3.535e-3
-0.346, 3.538e-3
-0.347, 3.541e-3
-0.348, 3.544e-3
-0.349, 3.547e-3
-0.350, 3.551e-3
-0.351, 3.554e-3
-0.352, 3.557e-3
-0.353, 3.563e-3
-0.354, 3.566e-3
-0.355, 3.566e-3
-0.356, 3.572e-3
-0.357, 3.575e-3
-0.358, 3.578e-3
-0.359, 3.581e-3
-0.360, 3.581e-3
-0.361, 3.587e-3
-0.362, 3.590e-3
-0.363, 3.590e-3
-0.364, 3.597e-3
-0.365, 3.600e-3
-0.366, 3.603e-3
-0.367, 3.606e-3
-0.368, 3.609e-3
-0.369, 3.606e-3
-0.370, 3.609e-3
-0.371, 3.615e-3
-0.372, 3.618e-3
-0.373, 3.621e-3
-0.374, 3.624e-3
-0.375, 3.627e-3
-0.376, 3.630e-3
-0.377, 3.633e-3
-0.378, 3.639e-3
-0.379, 3.643e-3
-0.380, 3.649e-3
-0.381, 3.658e-3
-0.382, 3.661e-3
-0.383, 3.664e-3
-0.384, 3.667e-3
-0.385, 3.667e-3
-0.386, 3.670e-3
-0.387, 3.676e-3
-0.388, 3.679e-3
-0.389, 3.682e-3
-0.390, 3.686e-3
-0.391, 3.689e-3
-0.392, 3.689e-3
-0.393, 3.692e-3
-0.394, 3.698e-3
-0.395, 3.701e-3
-0.396, 3.704e-3
-0.397, 3.704e-3
-0.398, 3.710e-3
-0.399, 3.713e-3
-0.400, 3.716e-3
-0.401, 3.719e-3
-0.402, 3.728e-3
-0.403, 3.735e-3
-0.404, 3.738e-3
-0.405, 3.741e-3
-0.406, 3.744e-3
-0.407, 3.747e-3
-0.408, 3.750e-3
-0.409, 3.753e-3
-0.410, 3.765e-3
-0.411, 3.765e-3
-0.412, 3.771e-3
-0.413, 3.774e-3
-0.414, 3.774e-3
-0.415, 3.778e-3
-0.416, 3.778e-3
-0.417, 3.778e-3
-0.418, 3.778e-3
-0.419, 3.781e-3
-0.420, 3.790e-3
-0.421, 3.799e-3
-0.422, 3.802e-3
-0.423, 3.802e-3
-0.424, 3.808e-3
-0.425, 3.811e-3
-0.426, 3.811e-3
-0.427, 3.814e-3
-0.428, 3.814e-3
-0.429, 3.817e-3
-0.430, 3.827e-3
-0.431, 3.833e-3
-0.432, 3.836e-3
-0.433, 3.836e-3
-0.434, 3.848e-3
-0.435, 3.851e-3
-0.436, 3.851e-3
-0.437, 3.848e-3
-0.438, 3.851e-3
-0.439, 3.867e-3
-0.440, 3.870e-3
-0.441, 3.873e-3
-0.442, 3.873e-3
-0.443, 3.876e-3
-0.444, 3.879e-3
-0.445, 3.885e-3
-0.446, 3.894e-3
-0.447, 3.897e-3
-0.448, 3.903e-3
-0.449, 3.909e-3
-0.450, 3.906e-3
-0.451, 3.903e-3
-0.452, 3.916e-3
-0.453, 3.916e-3
-0.454, 3.919e-3
-0.455, 3.919e-3
-0.456, 3.931e-3
-0.457, 3.940e-3
-0.458, 3.943e-3
-0.459, 3.940e-3
-0.460, 3.946e-3
-0.461, 3.952e-3
-0.462, 3.949e-3
-0.463, 3.956e-3
-0.464, 3.959e-3
-0.465, 3.968e-3
-0.466, 3.965e-3
-0.467, 3.974e-3
-0.468, 3.983e-3
-0.469, 3.983e-3
-0.470, 3.992e-3
-0.471, 3.989e-3
-0.472, 4.002e-3
-0.473, 4.005e-3
-0.474, 4.008e-3
-0.475, 4.020e-3
-0.476, 4.020e-3
-0.477, 4.011e-3
-0.478, 4.029e-3
-0.479, 4.020e-3
-0.480, 4.032e-3
-0.481, 4.035e-3
-0.482, 4.026e-3
-0.483, 4.029e-3
-0.484, 4.032e-3
-0.485, 4.029e-3
-0.486, 4.038e-3
-0.487, 4.038e-3
-0.488, 4.029e-3
-0.489, 4.038e-3
-0.490, 4.038e-3
-0.491, 4.038e-3
-0.492, 4.038e-3
-0.493, 4.048e-3
-0.494, 4.063e-3
-0.495, 4.054e-3
-0.496, 4.069e-3
-0.497, 4.069e-3
-0.498, 4.063e-3
-0.499, 4.087e-3
-0.500, 4.078e-3
-0.501, 4.072e-3
-0.502, 4.084e-3
-0.503, 4.081e-3
-0.504, 4.094e-3
-0.505, 4.103e-3
-0.506, 4.118e-3
-0.507, 4.112e-3
-0.508, 4.118e-3
-0.509, 4.115e-3
-0.510, 4.118e-3
-0.511, 4.115e-3
-0.512, 4.112e-3
-0.513, 4.143e-3
-0.514, 4.140e-3
-0.515, 4.137e-3
-0.516, 4.155e-3
-0.517, 4.143e-3
-0.518, 4.167e-3
-0.519, 4.155e-3
-0.520, 4.161e-3
-0.521, 4.176e-3
-0.522, 4.173e-3
-0.523, 4.176e-3
-0.524, 4.186e-3
-0.525, 4.186e-3
-0.526, 4.198e-3
-0.527, 4.201e-3
-0.528, 4.213e-3
-0.529, 4.198e-3
-0.530, 4.204e-3
-0.531, 4.213e-3
-0.532, 4.207e-3
-0.533, 4.204e-3
-0.534, 4.210e-3
-0.535, 4.226e-3
-0.536, 4.219e-3
-0.537, 4.238e-3
-0.538, 4.232e-3
-0.539, 4.250e-3
-0.540, 4.262e-3
-0.541, 4.284e-3
-0.542, 4.268e-3
-0.543, 4.278e-3
-0.544, 4.268e-3
-0.545, 4.272e-3
-0.546, 4.262e-3
-0.547, 4.259e-3
-0.548, 4.281e-3
-0.549, 4.275e-3
-0.550, 4.293e-3
-0.551, 4.284e-3
-0.552, 4.293e-3
-0.553, 4.287e-3
-0.554, 4.296e-3
-0.555, 4.296e-3
-0.556, 4.314e-3
-0.557, 4.308e-3
-0.558, 4.351e-3
-0.559, 4.361e-3
-0.560, 4.400e-3
-0.561, 4.422e-3
-0.562, 4.413e-3
-0.563, 4.437e-3
-0.564, 4.453e-3
-0.565, 4.462e-3
-0.566, 4.468e-3
-0.567, 4.471e-3
-0.568, 4.471e-3
-0.569, 4.477e-3
-0.570, 4.465e-3
-0.571, 4.471e-3
-0.572, 4.514e-3
-0.573, 4.514e-3
-0.574, 4.502e-3
-0.575, 4.486e-3
-0.576, 4.502e-3
-0.577, 4.508e-3
-0.578, 4.502e-3
-0.579, 4.508e-3
-0.580, 4.523e-3
-0.581, 4.551e-3
-0.582, 4.560e-3
-0.583, 4.597e-3
-0.584, 4.594e-3
-0.585, 4.584e-3
-0.586, 4.594e-3
-0.587, 4.588e-3
-0.588, 4.612e-3
-0.589, 4.600e-3
-0.590, 4.600e-3
-0.591, 4.609e-3
-0.592, 4.603e-3
-0.593, 4.600e-3
-0.594, 4.603e-3
-0.595, 4.603e-3
-0.596, 4.563e-3
-0.597, 4.557e-3
-0.598, 4.566e-3
-0.599, 4.612e-3
-0.600, 4.618e-3
-0.601, 4.615e-3
-0.602, 4.692e-3
-0.603, 4.753e-3
-0.604, 4.729e-3
-0.605, 4.741e-3
-0.606, 4.729e-3
-0.607, 4.710e-3
-0.608, 4.756e-3
-0.609, 4.861e-3
-0.610, 4.894e-3
-0.611, 4.870e-3
-0.612, 4.870e-3
-0.613, 4.858e-3
-0.614, 4.870e-3
-0.615, 4.876e-3
-0.616, 4.891e-3
-0.617, 4.894e-3
-0.618, 4.913e-3
-0.619, 4.910e-3
-0.620, 4.907e-3
-0.621, 4.937e-3
-0.622, 4.943e-3
-0.623, 4.968e-3
-0.624, 4.974e-3
-0.625, 4.959e-3
-0.626, 4.947e-3
-0.627, 4.953e-3
-0.628, 4.953e-3
-0.629, 5.002e-3
-0.630, 5.014e-3
-0.631, 5.057e-3
-0.632, 5.042e-3
-0.633, 5.039e-3
-0.634, 5.032e-3
-0.635, 5.039e-3
-0.636, 5.020e-3
-0.637, 5.057e-3
-0.638, 5.045e-3
-0.639, 5.112e-3
-0.640, 5.118e-3
-0.641, 5.100e-3
-0.642, 5.097e-3
-0.643, 5.118e-3
-0.644, 5.121e-3
-0.645, 5.109e-3
-0.646, 5.103e-3
-0.647, 5.652e-3
-0.648, 5.698e-3
-0.649, 5.661e-3
-0.650, 5.631e-3
-0.651, 5.588e-3
-0.652, 5.658e-3
-0.653, 5.701e-3
-0.654, 5.686e-3
-0.655, 5.747e-3
-0.656, 5.888e-3
-0.657, 5.861e-3
-0.658, 5.827e-3
-0.659, 5.830e-3
-0.660, 5.864e-3
-0.661, 5.815e-3
-0.662, 5.830e-3
-0.663, 5.809e-3
-0.664, 5.815e-3
-0.665, 5.815e-3
-0.666, 5.799e-3
-0.667, 5.855e-3
-0.668, 5.867e-3
-0.669, 5.842e-3
-0.670, 5.855e-3
-0.671, 5.846e-3
-0.672, 5.839e-3
-0.673, 5.815e-3
-0.674, 5.842e-3
-0.675, 5.901e-3
-0.676, 5.941e-3
-0.677, 5.858e-3
-0.678, 5.879e-3
-0.679, 5.867e-3
-0.680, 5.876e-3
-0.681, 5.901e-3
-0.682, 5.904e-3
-0.683, 5.895e-3
-0.684, 5.953e-3
-0.685, 5.950e-3
-0.686, 5.928e-3
-0.687, 5.898e-3
-0.688, 5.901e-3
-0.689, 5.974e-3
-0.690, 6.085e-3
-0.691, 6.140e-3
-0.692, 6.119e-3
-0.693, 6.091e-3
-0.694, 6.116e-3
-0.695, 6.131e-3
-0.696, 6.091e-3
-0.697, 6.122e-3
-0.698, 6.122e-3
-0.699, 6.079e-3
-0.700, 6.094e-3
-0.701, 6.122e-3
-0.702, 6.128e-3
-0.703, 6.140e-3
-0.704, 6.235e-3
-0.705, 6.705e-3
-0.706, 6.594e-3
-0.707, 6.542e-3
-0.708, 6.505e-3
-0.709, 6.484e-3
-0.710, 6.659e-3
-0.711, 6.726e-3
-0.712, 6.720e-3
-0.713, 6.689e-3
-0.714, 6.686e-3
-0.715, 6.680e-3
-0.716, 6.708e-3
-0.717, 6.677e-3
-0.718, 6.711e-3
-0.719, 6.723e-3
-0.720, 6.827e-3
-0.721, 6.830e-3
-0.722, 6.815e-3
-0.723, 6.806e-3
-0.724, 6.791e-3
-0.725, 6.861e-3
-0.726, 6.824e-3
-0.727, 6.803e-3
-0.728, 6.809e-3
-0.729, 6.907e-3
-0.730, 6.941e-3
-0.731, 6.978e-3
-0.732, 6.978e-3
-0.733, 6.962e-3
-0.734, 6.968e-3
-0.735, 6.978e-3
-0.736, 6.984e-3
-0.737, 7.005e-3
-0.738, 6.953e-3
-0.739, 6.895e-3
-0.740, 6.901e-3
-0.741, 6.858e-3
-0.742, 6.922e-3
-0.743, 7.057e-3
-0.744, 7.064e-3
-0.745, 7.030e-3
-0.746, 7.146e-3
-0.747, 8.331e-3
-0.748, 8.094e-3
-0.749, 8.067e-3
-0.750, 7.984e-3
-0.751, 7.981e-3
-0.752, 7.956e-3
-0.753, 7.935e-3
-0.754, 7.938e-3
-0.755, 8.033e-3
-0.756, 8.076e-3
-0.757, 8.104e-3
-0.758, 8.052e-3
-0.759, 8.006e-3
-0.760, 8.009e-3
-0.761, 8.018e-3
-0.762, 8.033e-3
-0.763, 7.978e-3
-0.764, 7.990e-3
-0.765, 8.012e-3
-0.766, 8.021e-3
-0.767, 7.996e-3
-0.768, 7.990e-3
-0.769, 8.024e-3
-0.770, 8.027e-3
-0.771, 8.088e-3
-0.772, 8.076e-3
-0.773, 8.061e-3
-0.774, 8.217e-3
-0.775, 8.187e-3
-0.776, 8.242e-3
-0.777, 8.828e-3
-0.778, 8.730e-3
-0.779, 8.708e-3
-0.780, 8.610e-3
-0.781, 8.647e-3
-0.782, 8.745e-3
-0.783, 8.794e-3
-0.784, 8.941e-3
-0.785, 8.886e-3
-0.786, 8.935e-3
-0.787, 8.868e-3
-0.788, 8.960e-3
-0.789, 9.113e-3
-0.790, 9.104e-3
-0.791, 8.981e-3
-0.792, 9.159e-3
-0.793, 9.107e-3
-0.794, 9.086e-3
-0.795, 9.135e-3
-0.796, 9.070e-3
-0.797, 9.141e-3
-0.798, 9.178e-3
-0.799, 9.273e-3
