Apr. 28, 2026   12:21:56
Cyclic Voltammetry
File: c:\users\administrator\desktop\2026.4.28\hi 2mol h2so4\0.2\run unsaved.txt
Data Source:  Experiment
Instrument Model:  CHI600E
Header: 
Note: 

Init E (V) = 0
High E (V) = 0.8
Low E (V) = -0.8
Init P/N = N
Scan Rate (V/s) = 0.2
Segment = 3
Sample Interval (V) = 0.001
Quiet Time (sec) = 2
Sensitivity (A/V) = 0.1

Segment 1:

Segment 2:

Segment 3:

Potential/V, Current/A

0.000, -7.110e-3
-0.001, -6.894e-3
-0.002, -6.706e-3
-0.003, -6.539e-3
-0.004, -6.381e-3
-0.005, -6.231e-3
-0.006, -6.082e-3
-0.007, -5.939e-3
-0.008, -5.810e-3
-0.009, -5.679e-3
-0.010, -5.548e-3
-0.011, -5.423e-3
-0.012, -5.309e-3
-0.013, -5.186e-3
-0.014, -5.066e-3
-0.015, -4.947e-3
-0.016, -4.839e-3
-0.017, -4.726e-3
-0.018, -4.611e-3
-0.019, -4.497e-3
-0.020, -4.398e-3
-0.021, -4.292e-3
-0.022, -4.183e-3
-0.023, -4.078e-3
-0.024, -3.980e-3
-0.025, -3.875e-3
-0.026, -3.772e-3
-0.027, -3.672e-3
-0.028, -3.582e-3
-0.029, -3.484e-3
-0.030, -3.386e-3
-0.031, -3.288e-3
-0.032, -3.196e-3
-0.033, -3.100e-3
-0.034, -3.003e-3
-0.035, -2.911e-3
-0.036, -2.826e-3
-0.037, -2.734e-3
-0.038, -2.641e-3
-0.039, -2.548e-3
-0.040, -2.462e-3
-0.041, -2.374e-3
-0.042, -2.282e-3
-0.043, -2.191e-3
-0.044, -2.111e-3
-0.045, -2.022e-3
-0.046, -1.932e-3
-0.047, -1.845e-3
-0.048, -1.768e-3
-0.049, -1.682e-3
-0.050, -1.595e-3
-0.051, -1.512e-3
-0.052, -1.435e-3
-0.053, -1.353e-3
-0.054, -1.266e-3
-0.055, -1.183e-3
-0.056, -1.106e-3
-0.057, -1.025e-3
-0.058, -9.402e-4
-0.059, -8.593e-4
-0.060, -7.827e-4
-0.061, -7.066e-4
-0.062, -6.218e-4
-0.063, -5.442e-4
-0.064, -4.685e-4
-0.065, -3.884e-4
-0.066, -3.089e-4
-0.067, -2.295e-4
-0.068, -1.579e-4
-0.069, -8.120e-5
-0.070, -2.945e-7
-0.071, 7.678e-5
-0.072, 1.454e-4
-0.073, 2.215e-4
-0.074, 2.991e-4
-0.075, 3.756e-4
-0.076, 4.503e-4
-0.077, 5.235e-4
-0.078, 6.028e-4
-0.079, 6.786e-4
-0.080, 7.470e-4
-0.081, 8.219e-4
-0.082, 8.997e-4
-0.083, 9.727e-4
-0.084, 1.041e-3
-0.085, 1.114e-3
-0.086, 1.190e-3
-0.087, 1.262e-3
-0.088, 1.326e-3
-0.089, 1.397e-3
-0.090, 1.474e-3
-0.091, 1.545e-3
-0.092, 1.610e-3
-0.093, 1.680e-3
-0.094, 1.756e-3
-0.095, 1.824e-3
-0.096, 1.888e-3
-0.097, 1.961e-3
-0.098, 2.034e-3
-0.099, 2.102e-3
-0.100, 2.166e-3
-0.101, 2.235e-3
-0.102, 2.307e-3
-0.103, 2.375e-3
-0.104, 2.435e-3
-0.105, 2.503e-3
-0.106, 2.573e-3
-0.107, 2.643e-3
-0.108, 2.705e-3
-0.109, 2.772e-3
-0.110, 2.842e-3
-0.111, 2.910e-3
-0.112, 2.971e-3
-0.113, 3.040e-3
-0.114, 3.108e-3
-0.115, 3.175e-3
-0.116, 3.237e-3
-0.117, 3.300e-3
-0.118, 3.372e-3
-0.119, 3.437e-3
-0.120, 3.498e-3
-0.121, 3.563e-3
-0.122, 3.631e-3
-0.123, 3.699e-3
-0.124, 3.756e-3
-0.125, 3.821e-3
-0.126, 3.891e-3
-0.127, 3.954e-3
-0.128, 4.012e-3
-0.129, 4.076e-3
-0.130, 4.144e-3
-0.131, 4.208e-3
-0.132, 4.268e-3
-0.133, 4.330e-3
-0.134, 4.396e-3
-0.135, 4.462e-3
-0.136, 4.517e-3
-0.137, 4.583e-3
-0.138, 4.649e-3
-0.139, 4.711e-3
-0.140, 4.767e-3
-0.141, 4.829e-3
-0.142, 4.894e-3
-0.143, 4.956e-3
-0.144, 5.013e-3
-0.145, 5.073e-3
-0.146, 5.134e-3
-0.147, 5.197e-3
-0.148, 5.254e-3
-0.149, 5.317e-3
-0.150, 5.384e-3
-0.151, 5.447e-3
-0.152, 5.502e-3
-0.153, 5.566e-3
-0.154, 5.633e-3
-0.155, 5.695e-3
-0.156, 5.748e-3
-0.157, 5.810e-3
-0.158, 5.877e-3
-0.159, 5.936e-3
-0.160, 5.991e-3
-0.161, 6.052e-3
-0.162, 6.114e-3
-0.163, 6.173e-3
-0.164, 6.226e-3
-0.165, 6.281e-3
-0.166, 6.342e-3
-0.167, 6.400e-3
-0.168, 6.451e-3
-0.169, 6.508e-3
-0.170, 6.570e-3
-0.171, 6.628e-3
-0.172, 6.681e-3
-0.173, 6.738e-3
-0.174, 6.800e-3
-0.175, 6.861e-3
-0.176, 6.912e-3
-0.177, 6.967e-3
-0.178, 7.028e-3
-0.179, 7.087e-3
-0.180, 7.139e-3
-0.181, 7.194e-3
-0.182, 7.256e-3
-0.183, 7.315e-3
-0.184, 7.366e-3
-0.185, 7.425e-3
-0.186, 7.486e-3
-0.187, 7.542e-3
-0.188, 7.594e-3
-0.189, 7.651e-3
-0.190, 7.714e-3
-0.191, 7.769e-3
-0.192, 7.820e-3
-0.193, 7.875e-3
-0.194, 7.934e-3
-0.195, 7.992e-3
-0.196, 8.045e-3
-0.197, 8.098e-3
-0.198, 8.158e-3
-0.199, 8.215e-3
-0.200, 8.264e-3
-0.201, 8.325e-3
-0.202, 8.383e-3
-0.203, 8.438e-3
-0.204, 8.489e-3
-0.205, 8.548e-3
-0.206, 8.607e-3
-0.207, 8.661e-3
-0.208, 8.710e-3
-0.209, 8.767e-3
-0.210, 8.828e-3
-0.211, 8.881e-3
-0.212, 8.930e-3
-0.213, 8.986e-3
-0.214, 9.044e-3
-0.215, 9.098e-3
-0.216, 9.141e-3
-0.217, 9.198e-3
-0.218, 9.259e-3
-0.219, 9.314e-3
-0.220, 9.361e-3
-0.221, 9.416e-3
-0.222, 9.474e-3
-0.223, 9.529e-3
-0.224, 9.578e-3
-0.225, 9.633e-3
-0.226, 9.690e-3
-0.227, 9.743e-3
-0.228, 9.790e-3
-0.229, 9.844e-3
-0.230, 9.901e-3
-0.231, 9.955e-3
-0.232, 1.000e-2
-0.233, 1.006e-2
-0.234, 1.011e-2
-0.235, 1.016e-2
-0.236, 1.021e-2
-0.237, 1.026e-2
-0.238, 1.032e-2
-0.239, 1.037e-2
-0.240, 1.042e-2
-0.241, 1.047e-2
-0.242, 1.052e-2
-0.243, 1.058e-2
-0.244, 1.062e-2
-0.245, 1.068e-2
-0.246, 1.074e-2
-0.247, 1.079e-2
-0.248, 1.083e-2
-0.249, 1.089e-2
-0.250, 1.094e-2
-0.251, 1.100e-2
-0.252, 1.104e-2
-0.253, 1.109e-2
-0.254, 1.115e-2
-0.255, 1.120e-2
-0.256, 1.125e-2
-0.257, 1.130e-2
-0.258, 1.135e-2
-0.259, 1.141e-2
-0.260, 1.145e-2
-0.261, 1.150e-2
-0.262, 1.156e-2
-0.263, 1.161e-2
-0.264, 1.166e-2
-0.265, 1.171e-2
-0.266, 1.176e-2
-0.267, 1.182e-2
-0.268, 1.186e-2
-0.269, 1.191e-2
-0.270, 1.197e-2
-0.271, 1.202e-2
-0.272, 1.206e-2
-0.273, 1.210e-2
-0.274, 1.215e-2
-0.275, 1.220e-2
-0.276, 1.224e-2
-0.277, 1.230e-2
-0.278, 1.235e-2
-0.279, 1.240e-2
-0.280, 1.245e-2
-0.281, 1.250e-2
-0.282, 1.255e-2
-0.283, 1.260e-2
-0.284, 1.265e-2
-0.285, 1.270e-2
-0.286, 1.275e-2
-0.287, 1.280e-2
-0.288, 1.284e-2
-0.289, 1.289e-2
-0.290, 1.295e-2
-0.291, 1.300e-2
-0.292, 1.304e-2
-0.293, 1.309e-2
-0.294, 1.315e-2
-0.295, 1.320e-2
-0.296, 1.324e-2
-0.297, 1.329e-2
-0.298, 1.334e-2
-0.299, 1.340e-2
-0.300, 1.344e-2
-0.301, 1.349e-2
-0.302, 1.354e-2
-0.303, 1.359e-2
-0.304, 1.364e-2
-0.305, 1.369e-2
-0.306, 1.374e-2
-0.307, 1.379e-2
-0.308, 1.384e-2
-0.309, 1.389e-2
-0.310, 1.394e-2
-0.311, 1.399e-2
-0.312, 1.403e-2
-0.313, 1.408e-2
-0.314, 1.413e-2
-0.315, 1.418e-2
-0.316, 1.422e-2
-0.317, 1.427e-2
-0.318, 1.432e-2
-0.319, 1.437e-2
-0.320, 1.441e-2
-0.321, 1.447e-2
-0.322, 1.452e-2
-0.323, 1.457e-2
-0.324, 1.461e-2
-0.325, 1.466e-2
-0.326, 1.471e-2
-0.327, 1.476e-2
-0.328, 1.480e-2
-0.329, 1.485e-2
-0.330, 1.491e-2
-0.331, 1.496e-2
-0.332, 1.500e-2
-0.333, 1.505e-2
-0.334, 1.510e-2
-0.335, 1.515e-2
-0.336, 1.519e-2
-0.337, 1.524e-2
-0.338, 1.529e-2
-0.339, 1.534e-2
-0.340, 1.539e-2
-0.341, 1.544e-2
-0.342, 1.549e-2
-0.343, 1.553e-2
-0.344, 1.558e-2
-0.345, 1.563e-2
-0.346, 1.568e-2
-0.347, 1.573e-2
-0.348, 1.577e-2
-0.349, 1.582e-2
-0.350, 1.587e-2
-0.351, 1.592e-2
-0.352, 1.596e-2
-0.353, 1.601e-2
-0.354, 1.606e-2
-0.355, 1.611e-2
-0.356, 1.616e-2
-0.357, 1.621e-2
-0.358, 1.626e-2
-0.359, 1.631e-2
-0.360, 1.635e-2
-0.361, 1.640e-2
-0.362, 1.645e-2
-0.363, 1.650e-2
-0.364, 1.654e-2
-0.365, 1.659e-2
-0.366, 1.665e-2
-0.367, 1.669e-2
-0.368, 1.673e-2
-0.369, 1.678e-2
-0.370, 1.684e-2
-0.371, 1.688e-2
-0.372, 1.693e-2
-0.373, 1.698e-2
-0.374, 1.703e-2
-0.375, 1.708e-2
-0.376, 1.712e-2
-0.377, 1.717e-2
-0.378, 1.722e-2
-0.379, 1.727e-2
-0.380, 1.731e-2
-0.381, 1.736e-2
-0.382, 1.741e-2
-0.383, 1.746e-2
-0.384, 1.750e-2
-0.385, 1.755e-2
-0.386, 1.760e-2
-0.387, 1.765e-2
-0.388, 1.769e-2
-0.389, 1.774e-2
-0.390, 1.779e-2
-0.391, 1.784e-2
-0.392, 1.788e-2
-0.393, 1.793e-2
-0.394, 1.798e-2
-0.395, 1.803e-2
-0.396, 1.807e-2
-0.397, 1.812e-2
-0.398, 1.817e-2
-0.399, 1.821e-2
-0.400, 1.826e-2
-0.401, 1.830e-2
-0.402, 1.836e-2
-0.403, 1.840e-2
-0.404, 1.844e-2
-0.405, 1.849e-2
-0.406, 1.855e-2
-0.407, 1.859e-2
-0.408, 1.863e-2
-0.409, 1.869e-2
-0.410, 1.874e-2
-0.411, 1.879e-2
-0.412, 1.883e-2
-0.413, 1.888e-2
-0.414, 1.893e-2
-0.415, 1.897e-2
-0.416, 1.902e-2
-0.417, 1.907e-2
-0.418, 1.912e-2
-0.419, 1.917e-2
-0.420, 1.921e-2
-0.421, 1.926e-2
-0.422, 1.931e-2
-0.423, 1.936e-2
-0.424, 1.940e-2
-0.425, 1.945e-2
-0.426, 1.950e-2
-0.427, 1.954e-2
-0.428, 1.959e-2
-0.429, 1.964e-2
-0.430, 1.969e-2
-0.431, 1.973e-2
-0.432, 1.977e-2
-0.433, 1.982e-2
-0.434, 1.987e-2
-0.435, 1.992e-2
-0.436, 1.996e-2
-0.437, 2.002e-2
-0.438, 2.007e-2
-0.439, 2.011e-2
-0.440, 2.015e-2
-0.441, 2.020e-2
-0.442, 2.025e-2
-0.443, 2.030e-2
-0.444, 2.034e-2
-0.445, 2.039e-2
-0.446, 2.044e-2
-0.447, 2.049e-2
-0.448, 2.053e-2
-0.449, 2.058e-2
-0.450, 2.063e-2
-0.451, 2.068e-2
-0.452, 2.072e-2
-0.453, 2.077e-2
-0.454, 2.082e-2
-0.455, 2.087e-2
-0.456, 2.091e-2
-0.457, 2.096e-2
-0.458, 2.101e-2
-0.459, 2.105e-2
-0.460, 2.110e-2
-0.461, 2.115e-2
-0.462, 2.120e-2
-0.463, 2.125e-2
-0.464, 2.129e-2
-0.465, 2.134e-2
-0.466, 2.139e-2
-0.467, 2.143e-2
-0.468, 2.148e-2
-0.469, 2.152e-2
-0.470, 2.158e-2
-0.471, 2.162e-2
-0.472, 2.166e-2
-0.473, 2.171e-2
-0.474, 2.176e-2
-0.475, 2.181e-2
-0.476, 2.185e-2
-0.477, 2.190e-2
-0.478, 2.195e-2
-0.479, 2.200e-2
-0.480, 2.204e-2
-0.481, 2.209e-2
-0.482, 2.214e-2
-0.483, 2.219e-2
-0.484, 2.223e-2
-0.485, 2.228e-2
-0.486, 2.232e-2
-0.487, 2.237e-2
-0.488, 2.241e-2
-0.489, 2.247e-2
-0.490, 2.251e-2
-0.491, 2.256e-2
-0.492, 2.261e-2
-0.493, 2.265e-2
-0.494, 2.270e-2
-0.495, 2.275e-2
-0.496, 2.279e-2
-0.497, 2.284e-2
-0.498, 2.289e-2
-0.499, 2.294e-2
-0.500, 2.298e-2
-0.501, 2.303e-2
-0.502, 2.309e-2
-0.503, 2.313e-2
-0.504, 2.318e-2
-0.505, 2.323e-2
-0.506, 2.328e-2
-0.507, 2.332e-2
-0.508, 2.337e-2
-0.509, 2.341e-2
-0.510, 2.346e-2
-0.511, 2.351e-2
-0.512, 2.355e-2
-0.513, 2.360e-2
-0.514, 2.365e-2
-0.515, 2.370e-2
-0.516, 2.374e-2
-0.517, 2.379e-2
-0.518, 2.384e-2
-0.519, 2.389e-2
-0.520, 2.393e-2
-0.521, 2.398e-2
-0.522, 2.403e-2
-0.523, 2.408e-2
-0.524, 2.412e-2
-0.525, 2.417e-2
-0.526, 2.423e-2
-0.527, 2.428e-2
-0.528, 2.431e-2
-0.529, 2.436e-2
-0.530, 2.441e-2
-0.531, 2.446e-2
-0.532, 2.451e-2
-0.533, 2.456e-2
-0.534, 2.461e-2
-0.535, 2.465e-2
-0.536, 2.469e-2
-0.537, 2.474e-2
-0.538, 2.480e-2
-0.539, 2.484e-2
-0.540, 2.488e-2
-0.541, 2.494e-2
-0.542, 2.499e-2
-0.543, 2.504e-2
-0.544, 2.508e-2
-0.545, 2.513e-2
-0.546, 2.518e-2
-0.547, 2.522e-2
-0.548, 2.526e-2
-0.549, 2.531e-2
-0.550, 2.537e-2
-0.551, 2.541e-2
-0.552, 2.546e-2
-0.553, 2.551e-2
-0.554, 2.555e-2
-0.555, 2.560e-2
-0.556, 2.565e-2
-0.557, 2.570e-2
-0.558, 2.575e-2
-0.559, 2.579e-2
-0.560, 2.583e-2
-0.561, 2.589e-2
-0.562, 2.594e-2
-0.563, 2.598e-2
-0.564, 2.602e-2
-0.565, 2.607e-2
-0.566, 2.613e-2
-0.567, 2.617e-2
-0.568, 2.621e-2
-0.569, 2.626e-2
-0.570, 2.631e-2
-0.571, 2.636e-2
-0.572, 2.641e-2
-0.573, 2.646e-2
-0.574, 2.651e-2
-0.575, 2.655e-2
-0.576, 2.660e-2
-0.577, 2.665e-2
-0.578, 2.670e-2
-0.579, 2.675e-2
-0.580, 2.679e-2
-0.581, 2.684e-2
-0.582, 2.690e-2
-0.583, 2.694e-2
-0.584, 2.698e-2
-0.585, 2.703e-2
-0.586, 2.708e-2
-0.587, 2.713e-2
-0.588, 2.717e-2
-0.589, 2.722e-2
-0.590, 2.726e-2
-0.591, 2.731e-2
-0.592, 2.736e-2
-0.593, 2.742e-2
-0.594, 2.746e-2
-0.595, 2.750e-2
-0.596, 2.755e-2
-0.597, 2.761e-2
-0.598, 2.766e-2
-0.599, 2.771e-2
-0.600, 2.774e-2
-0.601, 2.779e-2
-0.602, 2.785e-2
-0.603, 2.789e-2
-0.604, 2.793e-2
-0.605, 2.798e-2
-0.606, 2.803e-2
-0.607, 2.808e-2
-0.608, 2.812e-2
-0.609, 2.817e-2
-0.610, 2.822e-2
-0.611, 2.827e-2
-0.612, 2.832e-2
-0.613, 2.838e-2
-0.614, 2.844e-2
-0.615, 2.849e-2
-0.616, 2.853e-2
-0.617, 2.857e-2
-0.618, 2.863e-2
-0.619, 2.867e-2
-0.620, 2.870e-2
-0.621, 2.877e-2
-0.622, 2.882e-2
-0.623, 2.887e-2
-0.624, 2.891e-2
-0.625, 2.896e-2
-0.626, 2.901e-2
-0.627, 2.907e-2
-0.628, 2.911e-2
-0.629, 2.915e-2
-0.630, 2.921e-2
-0.631, 2.926e-2
-0.632, 2.930e-2
-0.633, 2.935e-2
-0.634, 2.941e-2
-0.635, 2.945e-2
-0.636, 2.949e-2
-0.637, 2.955e-2
-0.638, 2.960e-2
-0.639, 2.965e-2
-0.640, 2.969e-2
-0.641, 2.974e-2
-0.642, 2.980e-2
-0.643, 2.984e-2
-0.644, 2.989e-2
-0.645, 2.993e-2
-0.646, 2.999e-2
-0.647, 3.004e-2
-0.648, 3.008e-2
-0.649, 3.013e-2
-0.650, 3.018e-2
-0.651, 3.023e-2
-0.652, 3.027e-2
-0.653, 3.032e-2
-0.654, 3.038e-2
-0.655, 3.043e-2
-0.656, 3.047e-2
-0.657, 3.053e-2
-0.658, 3.059e-2
-0.659, 3.063e-2
-0.660, 3.068e-2
-0.661, 3.074e-2
-0.662, 3.079e-2
-0.663, 3.083e-2
-0.664, 3.087e-2
-0.665, 3.093e-2
-0.666, 3.098e-2
-0.667, 3.105e-2
-0.668, 3.109e-2
-0.669, 3.114e-2
-0.670, 3.119e-2
-0.671, 3.123e-2
-0.672, 3.129e-2
-0.673, 3.134e-2
-0.674, 3.139e-2
-0.675, 3.144e-2
-0.676, 3.150e-2
-0.677, 3.154e-2
-0.678, 3.158e-2
-0.679, 3.164e-2
-0.680, 3.168e-2
-0.681, 3.173e-2
-0.682, 3.179e-2
-0.683, 3.184e-2
-0.684, 3.188e-2
-0.685, 3.194e-2
-0.686, 3.199e-2
-0.687, 3.204e-2
-0.688, 3.209e-2
-0.689, 3.214e-2
-0.690, 3.219e-2
-0.691, 3.225e-2
-0.692, 3.229e-2
-0.693, 3.234e-2
-0.694, 3.240e-2
-0.695, 3.244e-2
-0.696, 3.249e-2
-0.697, 3.254e-2
-0.698, 3.260e-2
-0.699, 3.265e-2
-0.700, 3.270e-2
-0.701, 3.276e-2
-0.702, 3.282e-2
-0.703, 3.286e-2
-0.704, 3.291e-2
-0.705, 3.296e-2
-0.706, 3.302e-2
-0.707, 3.307e-2
-0.708, 3.310e-2
-0.709, 3.316e-2
-0.710, 3.323e-2
-0.711, 3.328e-2
-0.712, 3.331e-2
-0.713, 3.338e-2
-0.714, 3.343e-2
-0.715, 3.349e-2
-0.716, 3.353e-2
-0.717, 3.359e-2
-0.718, 3.365e-2
-0.719, 3.369e-2
-0.720, 3.374e-2
-0.721, 3.379e-2
-0.722, 3.385e-2
-0.723, 3.391e-2
-0.724, 3.396e-2
-0.725, 3.400e-2
-0.726, 3.407e-2
-0.727, 3.411e-2
-0.728, 3.416e-2
-0.729, 3.422e-2
-0.730, 3.429e-2
-0.731, 3.433e-2
-0.732, 3.439e-2
-0.733, 3.444e-2
-0.734, 3.451e-2
-0.735, 3.455e-2
-0.736, 3.460e-2
-0.737, 3.466e-2
-0.738, 3.471e-2
-0.739, 3.477e-2
-0.740, 3.483e-2
-0.741, 3.488e-2
-0.742, 3.493e-2
-0.743, 3.499e-2
-0.744, 3.504e-2
-0.745, 3.509e-2
-0.746, 3.515e-2
-0.747, 3.520e-2
-0.748, 3.525e-2
-0.749, 3.532e-2
-0.750, 3.539e-2
-0.751, 3.544e-2
-0.752, 3.548e-2
-0.753, 3.555e-2
-0.754, 3.561e-2
-0.755, 3.566e-2
-0.756, 3.573e-2
-0.757, 3.580e-2
-0.758, 3.586e-2
-0.759, 3.591e-2
-0.760, 3.597e-2
-0.761, 3.602e-2
-0.762, 3.609e-2
-0.763, 3.614e-2
-0.764, 3.619e-2
-0.765, 3.626e-2
-0.766, 3.632e-2
-0.767, 3.637e-2
-0.768, 3.642e-2
-0.769, 3.648e-2
-0.770, 3.653e-2
-0.771, 3.659e-2
-0.772, 3.665e-2
-0.773, 3.671e-2
-0.774, 3.674e-2
-0.775, 3.680e-2
-0.776, 3.685e-2
-0.777, 3.691e-2
-0.778, 3.698e-2
-0.779, 3.704e-2
-0.780, 3.710e-2
-0.781, 3.717e-2
-0.782, 3.724e-2
-0.783, 3.731e-2
-0.784, 3.737e-2
-0.785, 3.743e-2
-0.786, 3.751e-2
-0.787, 3.759e-2
-0.788, 3.764e-2
-0.789, 3.770e-2
-0.790, 3.777e-2
-0.791, 3.784e-2
-0.792, 3.788e-2
-0.793, 3.794e-2
-0.794, 3.802e-2
-0.795, 3.808e-2
-0.796, 3.812e-2
-0.797, 3.819e-2
-0.798, 3.829e-2
-0.799, 3.836e-2
-0.800, 3.825e-2
-0.799, 3.789e-2
-0.798, 3.758e-2
-0.797, 3.730e-2
-0.796, 3.699e-2
-0.795, 3.672e-2
-0.794, 3.647e-2
-0.793, 3.622e-2
-0.792, 3.598e-2
-0.791, 3.574e-2
-0.790, 3.552e-2
-0.789, 3.532e-2
-0.788, 3.508e-2
-0.787, 3.486e-2
-0.786, 3.465e-2
-0.785, 3.444e-2
-0.784, 3.424e-2
-0.783, 3.404e-2
-0.782, 3.384e-2
-0.781, 3.364e-2
-0.780, 3.345e-2
-0.779, 3.325e-2
-0.778, 3.304e-2
-0.777, 3.286e-2
-0.776, 3.266e-2
-0.775, 3.247e-2
-0.774, 3.228e-2
-0.773, 3.208e-2
-0.772, 3.190e-2
-0.771, 3.172e-2
-0.770, 3.154e-2
-0.769, 3.134e-2
-0.768, 3.116e-2
-0.767, 3.098e-2
-0.766, 3.081e-2
-0.765, 3.063e-2
-0.764, 3.045e-2
-0.763, 3.029e-2
-0.762, 3.015e-2
-0.761, 2.998e-2
-0.760, 2.982e-2
-0.759, 2.965e-2
-0.758, 2.948e-2
-0.757, 2.931e-2
-0.756, 2.914e-2
-0.755, 2.899e-2
-0.754, 2.883e-2
-0.753, 2.868e-2
-0.752, 2.854e-2
-0.751, 2.838e-2
-0.750, 2.823e-2
-0.749, 2.806e-2
-0.748, 2.789e-2
-0.747, 2.775e-2
-0.746, 2.760e-2
-0.745, 2.743e-2
-0.744, 2.727e-2
-0.743, 2.713e-2
-0.742, 2.698e-2
-0.741, 2.683e-2
-0.740, 2.670e-2
-0.739, 2.655e-2
-0.738, 2.640e-2
-0.737, 2.625e-2
-0.736, 2.611e-2
-0.735, 2.598e-2
-0.734, 2.584e-2
-0.733, 2.570e-2
-0.732, 2.555e-2
-0.731, 2.544e-2
-0.730, 2.531e-2
-0.729, 2.516e-2
-0.728, 2.502e-2
-0.727, 2.489e-2
-0.726, 2.475e-2
-0.725, 2.461e-2
-0.724, 2.446e-2
-0.723, 2.433e-2
-0.722, 2.419e-2
-0.721, 2.405e-2
-0.720, 2.391e-2
-0.719, 2.378e-2
-0.718, 2.364e-2
-0.717, 2.351e-2
-0.716, 2.337e-2
-0.715, 2.325e-2
-0.714, 2.314e-2
-0.713, 2.299e-2
-0.712, 2.285e-2
-0.711, 2.274e-2
-0.710, 2.262e-2
-0.709, 2.249e-2
-0.708, 2.236e-2
-0.707, 2.223e-2
-0.706, 2.210e-2
-0.705, 2.198e-2
-0.704, 2.185e-2
-0.703, 2.172e-2
-0.702, 2.161e-2
-0.701, 2.148e-2
-0.700, 2.136e-2
-0.699, 2.124e-2
-0.698, 2.111e-2
-0.697, 2.097e-2
-0.696, 2.086e-2
-0.695, 2.074e-2
-0.694, 2.062e-2
-0.693, 2.052e-2
-0.692, 2.039e-2
-0.691, 2.026e-2
-0.690, 2.014e-2
-0.689, 2.002e-2
-0.688, 1.990e-2
-0.687, 1.979e-2
-0.686, 1.969e-2
-0.685, 1.957e-2
-0.684, 1.945e-2
-0.683, 1.933e-2
-0.682, 1.922e-2
-0.681, 1.910e-2
-0.680, 1.899e-2
-0.679, 1.888e-2
-0.678, 1.877e-2
-0.677, 1.866e-2
-0.676, 1.854e-2
-0.675, 1.843e-2
-0.674, 1.832e-2
-0.673, 1.820e-2
-0.672, 1.808e-2
-0.671, 1.797e-2
-0.670, 1.787e-2
-0.669, 1.776e-2
-0.668, 1.764e-2
-0.667, 1.753e-2
-0.666, 1.743e-2
-0.665, 1.731e-2
-0.664, 1.720e-2
-0.663, 1.709e-2
-0.662, 1.700e-2
-0.661, 1.688e-2
-0.660, 1.677e-2
-0.659, 1.668e-2
-0.658, 1.657e-2
-0.657, 1.645e-2
-0.656, 1.634e-2
-0.655, 1.624e-2
-0.654, 1.614e-2
-0.653, 1.603e-2
-0.652, 1.593e-2
-0.651, 1.583e-2
-0.650, 1.573e-2
-0.649, 1.562e-2
-0.648, 1.551e-2
-0.647, 1.542e-2
-0.646, 1.531e-2
-0.645, 1.522e-2
-0.644, 1.511e-2
-0.643, 1.501e-2
-0.642, 1.492e-2
-0.641, 1.481e-2
-0.640, 1.471e-2
-0.639, 1.461e-2
-0.638, 1.450e-2
-0.637, 1.440e-2
-0.636, 1.430e-2
-0.635, 1.421e-2
-0.634, 1.412e-2
-0.633, 1.402e-2
-0.632, 1.391e-2
-0.631, 1.381e-2
-0.630, 1.373e-2
-0.629, 1.363e-2
-0.628, 1.353e-2
-0.627, 1.345e-2
-0.626, 1.336e-2
-0.625, 1.326e-2
-0.624, 1.316e-2
-0.623, 1.307e-2
-0.622, 1.297e-2
-0.621, 1.287e-2
-0.620, 1.278e-2
-0.619, 1.269e-2
-0.618, 1.260e-2
-0.617, 1.250e-2
-0.616, 1.240e-2
-0.615, 1.231e-2
-0.614, 1.223e-2
-0.613, 1.214e-2
-0.612, 1.206e-2
-0.611, 1.198e-2
-0.610, 1.191e-2
-0.609, 1.181e-2
-0.608, 1.171e-2
-0.607, 1.162e-2
-0.606, 1.154e-2
-0.605, 1.146e-2
-0.604, 1.137e-2
-0.603, 1.130e-2
-0.602, 1.122e-2
-0.601, 1.113e-2
-0.600, 1.103e-2
-0.599, 1.095e-2
-0.598, 1.086e-2
-0.597, 1.076e-2
-0.596, 1.068e-2
-0.595, 1.059e-2
-0.594, 1.051e-2
-0.593, 1.041e-2
-0.592, 1.033e-2
-0.591, 1.025e-2
-0.590, 1.017e-2
-0.589, 1.008e-2
-0.588, 9.989e-3
-0.587, 9.912e-3
-0.586, 9.830e-3
-0.585, 9.746e-3
-0.584, 9.667e-3
-0.583, 9.585e-3
-0.582, 9.502e-3
-0.581, 9.408e-3
-0.580, 9.324e-3
-0.579, 9.250e-3
-0.578, 9.163e-3
-0.577, 9.078e-3
-0.576, 8.986e-3
-0.575, 8.914e-3
-0.574, 8.832e-3
-0.573, 8.742e-3
-0.572, 8.658e-3
-0.571, 8.579e-3
-0.570, 8.497e-3
-0.569, 8.409e-3
-0.568, 8.323e-3
-0.567, 8.239e-3
-0.566, 8.159e-3
-0.565, 8.081e-3
-0.564, 7.994e-3
-0.563, 7.915e-3
-0.562, 7.842e-3
-0.561, 7.751e-3
-0.560, 7.670e-3
-0.559, 7.591e-3
-0.558, 7.514e-3
-0.557, 7.436e-3
-0.556, 7.358e-3
-0.555, 7.278e-3
-0.554, 7.199e-3
-0.553, 7.117e-3
-0.552, 7.037e-3
-0.551, 6.958e-3
-0.550, 6.884e-3
-0.549, 6.800e-3
-0.548, 6.722e-3
-0.547, 6.649e-3
-0.546, 6.568e-3
-0.545, 6.489e-3
-0.544, 6.411e-3
-0.543, 6.337e-3
-0.542, 6.271e-3
-0.541, 6.187e-3
-0.540, 6.107e-3
-0.539, 6.031e-3
-0.538, 5.958e-3
-0.537, 5.879e-3
-0.536, 5.797e-3
-0.535, 5.730e-3
-0.534, 5.662e-3
-0.533, 5.577e-3
-0.532, 5.498e-3
-0.531, 5.431e-3
-0.530, 5.358e-3
-0.529, 5.285e-3
-0.528, 5.211e-3
-0.527, 5.147e-3
-0.526, 5.081e-3
-0.525, 5.003e-3
-0.524, 4.927e-3
-0.523, 4.854e-3
-0.522, 4.781e-3
-0.521, 4.705e-3
-0.520, 4.631e-3
-0.519, 4.562e-3
-0.518, 4.492e-3
-0.517, 4.417e-3
-0.516, 4.342e-3
-0.515, 4.270e-3
-0.514, 4.202e-3
-0.513, 4.127e-3
-0.512, 4.052e-3
-0.511, 3.986e-3
-0.510, 3.915e-3
-0.509, 3.837e-3
-0.508, 3.767e-3
-0.507, 3.704e-3
-0.506, 3.634e-3
-0.505, 3.556e-3
-0.504, 3.488e-3
-0.503, 3.421e-3
-0.502, 3.351e-3
-0.501, 3.280e-3
-0.500, 3.204e-3
-0.499, 3.140e-3
-0.498, 3.075e-3
-0.497, 3.003e-3
-0.496, 2.933e-3
-0.495, 2.871e-3
-0.494, 2.803e-3
-0.493, 2.732e-3
-0.492, 2.662e-3
-0.491, 2.597e-3
-0.490, 2.529e-3
-0.489, 2.459e-3
-0.488, 2.388e-3
-0.487, 2.326e-3
-0.486, 2.260e-3
-0.485, 2.191e-3
-0.484, 2.122e-3
-0.483, 2.064e-3
-0.482, 1.997e-3
-0.481, 1.925e-3
-0.480, 1.855e-3
-0.479, 1.793e-3
-0.478, 1.726e-3
-0.477, 1.659e-3
-0.476, 1.591e-3
-0.475, 1.532e-3
-0.474, 1.462e-3
-0.473, 1.393e-3
-0.472, 1.327e-3
-0.471, 1.263e-3
-0.470, 1.200e-3
-0.469, 1.131e-3
-0.468, 1.066e-3
-0.467, 1.002e-3
-0.466, 9.413e-4
-0.465, 8.748e-4
-0.464, 8.122e-4
-0.463, 7.503e-4
-0.462, 6.828e-4
-0.461, 6.149e-4
-0.460, 5.473e-4
-0.459, 4.900e-4
-0.458, 4.275e-4
-0.457, 3.560e-4
-0.456, 2.917e-4
-0.455, 2.297e-4
-0.454, 1.672e-4
-0.453, 1.003e-4
-0.452, 3.839e-5
-0.451, -2.072e-5
-0.450, -8.110e-5
-0.449, -1.508e-4
-0.448, -2.128e-4
-0.447, -2.726e-4
-0.446, -3.323e-4
-0.445, -4.004e-4
-0.444, -4.600e-4
-0.443, -5.184e-4
-0.442, -5.804e-4
-0.441, -6.491e-4
-0.440, -7.095e-4
-0.439, -7.673e-4
-0.438, -8.267e-4
-0.437, -8.928e-4
-0.436, -9.553e-4
-0.435, -1.012e-3
-0.434, -1.071e-3
-0.433, -1.137e-3
-0.432, -1.197e-3
-0.431, -1.252e-3
-0.430, -1.309e-3
-0.429, -1.374e-3
-0.428, -1.437e-3
-0.427, -1.490e-3
-0.426, -1.547e-3
-0.425, -1.610e-3
-0.424, -1.671e-3
-0.423, -1.726e-3
-0.422, -1.785e-3
-0.421, -1.847e-3
-0.420, -1.909e-3
-0.419, -1.967e-3
-0.418, -2.025e-3
-0.417, -2.089e-3
-0.416, -2.149e-3
-0.415, -2.204e-3
-0.414, -2.260e-3
-0.413, -2.323e-3
-0.412, -2.384e-3
-0.411, -2.439e-3
-0.410, -2.500e-3
-0.409, -2.567e-3
-0.408, -2.625e-3
-0.407, -2.679e-3
-0.406, -2.735e-3
-0.405, -2.798e-3
-0.404, -2.857e-3
-0.403, -2.910e-3
-0.402, -2.963e-3
-0.401, -3.023e-3
-0.400, -3.083e-3
-0.399, -3.136e-3
-0.398, -3.190e-3
-0.397, -3.254e-3
-0.396, -3.313e-3
-0.395, -3.365e-3
-0.394, -3.419e-3
-0.393, -3.479e-3
-0.392, -3.539e-3
-0.391, -3.592e-3
-0.390, -3.643e-3
-0.389, -3.701e-3
-0.388, -3.757e-3
-0.387, -3.812e-3
-0.386, -3.866e-3
-0.385, -3.925e-3
-0.384, -3.983e-3
-0.383, -4.036e-3
-0.382, -4.088e-3
-0.381, -4.147e-3
-0.380, -4.206e-3
-0.379, -4.257e-3
-0.378, -4.312e-3
-0.377, -4.371e-3
-0.376, -4.426e-3
-0.375, -4.476e-3
-0.374, -4.527e-3
-0.373, -4.586e-3
-0.372, -4.641e-3
-0.371, -4.693e-3
-0.370, -4.746e-3
-0.369, -4.805e-3
-0.368, -4.860e-3
-0.367, -4.911e-3
-0.366, -4.962e-3
-0.365, -5.023e-3
-0.364, -5.078e-3
-0.363, -5.126e-3
-0.362, -5.178e-3
-0.361, -5.237e-3
-0.360, -5.292e-3
-0.359, -5.341e-3
-0.358, -5.393e-3
-0.357, -5.450e-3
-0.356, -5.506e-3
-0.355, -5.553e-3
-0.354, -5.606e-3
-0.353, -5.662e-3
-0.352, -5.717e-3
-0.351, -5.766e-3
-0.350, -5.816e-3
-0.349, -5.873e-3
-0.348, -5.928e-3
-0.347, -5.977e-3
-0.346, -6.029e-3
-0.345, -6.085e-3
-0.344, -6.137e-3
-0.343, -6.186e-3
-0.342, -6.237e-3
-0.341, -6.294e-3
-0.340, -6.346e-3
-0.339, -6.395e-3
-0.338, -6.446e-3
-0.337, -6.505e-3
-0.336, -6.557e-3
-0.335, -6.603e-3
-0.334, -6.652e-3
-0.333, -6.709e-3
-0.332, -6.761e-3
-0.331, -6.808e-3
-0.330, -6.858e-3
-0.329, -6.915e-3
-0.328, -6.968e-3
-0.327, -7.017e-3
-0.326, -7.065e-3
-0.325, -7.118e-3
-0.324, -7.170e-3
-0.323, -7.216e-3
-0.322, -7.267e-3
-0.321, -7.327e-3
-0.320, -7.381e-3
-0.319, -7.430e-3
-0.318, -7.479e-3
-0.317, -7.533e-3
-0.316, -7.583e-3
-0.315, -7.629e-3
-0.314, -7.678e-3
-0.313, -7.734e-3
-0.312, -7.785e-3
-0.311, -7.831e-3
-0.310, -7.878e-3
-0.309, -7.933e-3
-0.308, -7.986e-3
-0.307, -8.033e-3
-0.306, -8.082e-3
-0.305, -8.135e-3
-0.304, -8.186e-3
-0.303, -8.231e-3
-0.302, -8.279e-3
-0.301, -8.334e-3
-0.300, -8.382e-3
-0.299, -8.429e-3
-0.298, -8.478e-3
-0.297, -8.531e-3
-0.296, -8.578e-3
-0.295, -8.625e-3
-0.294, -8.672e-3
-0.293, -8.726e-3
-0.292, -8.773e-3
-0.291, -8.814e-3
-0.290, -8.863e-3
-0.289, -8.919e-3
-0.288, -8.966e-3
-0.287, -9.011e-3
-0.286, -9.057e-3
-0.285, -9.110e-3
-0.284, -9.159e-3
-0.283, -9.203e-3
-0.282, -9.249e-3
-0.281, -9.303e-3
-0.280, -9.351e-3
-0.279, -9.395e-3
-0.278, -9.440e-3
-0.277, -9.491e-3
-0.276, -9.541e-3
-0.275, -9.584e-3
-0.274, -9.631e-3
-0.273, -9.684e-3
-0.272, -9.729e-3
-0.271, -9.774e-3
-0.270, -9.819e-3
-0.269, -9.871e-3
-0.268, -9.921e-3
-0.267, -9.965e-3
-0.266, -1.001e-2
-0.265, -1.006e-2
-0.264, -1.010e-2
-0.263, -1.015e-2
-0.262, -1.020e-2
-0.261, -1.024e-2
-0.260, -1.029e-2
-0.259, -1.034e-2
-0.258, -1.038e-2
-0.257, -1.044e-2
-0.256, -1.048e-2
-0.255, -1.052e-2
-0.254, -1.057e-2
-0.253, -1.062e-2
-0.252, -1.067e-2
-0.251, -1.071e-2
-0.250, -1.075e-2
-0.249, -1.081e-2
-0.248, -1.085e-2
-0.247, -1.089e-2
-0.246, -1.094e-2
-0.245, -1.099e-2
-0.244, -1.103e-2
-0.243, -1.108e-2
-0.242, -1.112e-2
-0.241, -1.117e-2
-0.240, -1.122e-2
-0.239, -1.126e-2
-0.238, -1.130e-2
-0.237, -1.136e-2
-0.236, -1.140e-2
-0.235, -1.144e-2
-0.234, -1.149e-2
-0.233, -1.154e-2
-0.232, -1.158e-2
-0.231, -1.163e-2
-0.230, -1.167e-2
-0.229, -1.172e-2
-0.228, -1.177e-2
-0.227, -1.181e-2
-0.226, -1.185e-2
-0.225, -1.190e-2
-0.224, -1.195e-2
-0.223, -1.199e-2
-0.222, -1.203e-2
-0.221, -1.208e-2
-0.220, -1.213e-2
-0.219, -1.216e-2
-0.218, -1.221e-2
-0.217, -1.226e-2
-0.216, -1.230e-2
-0.215, -1.235e-2
-0.214, -1.239e-2
-0.213, -1.244e-2
-0.212, -1.248e-2
-0.211, -1.252e-2
-0.210, -1.256e-2
-0.209, -1.262e-2
-0.208, -1.266e-2
-0.207, -1.270e-2
-0.206, -1.274e-2
-0.205, -1.279e-2
-0.204, -1.284e-2
-0.203, -1.288e-2
-0.202, -1.292e-2
-0.201, -1.297e-2
-0.200, -1.301e-2
-0.199, -1.305e-2
-0.198, -1.310e-2
-0.197, -1.314e-2
-0.196, -1.319e-2
-0.195, -1.323e-2
-0.194, -1.327e-2
-0.193, -1.332e-2
-0.192, -1.336e-2
-0.191, -1.340e-2
-0.190, -1.344e-2
-0.189, -1.349e-2
-0.188, -1.353e-2
-0.187, -1.357e-2
-0.186, -1.361e-2
-0.185, -1.366e-2
-0.184, -1.370e-2
-0.183, -1.374e-2
-0.182, -1.378e-2
-0.181, -1.383e-2
-0.180, -1.388e-2
-0.179, -1.391e-2
-0.178, -1.395e-2
-0.177, -1.400e-2
-0.176, -1.404e-2
-0.175, -1.408e-2
-0.174, -1.412e-2
-0.173, -1.417e-2
-0.172, -1.422e-2
-0.171, -1.426e-2
-0.170, -1.430e-2
-0.169, -1.434e-2
-0.168, -1.439e-2
-0.167, -1.442e-2
-0.166, -1.447e-2
-0.165, -1.451e-2
-0.164, -1.455e-2
-0.163, -1.459e-2
-0.162, -1.463e-2
-0.161, -1.468e-2
-0.160, -1.473e-2
-0.159, -1.476e-2
-0.158, -1.480e-2
-0.157, -1.485e-2
-0.156, -1.489e-2
-0.155, -1.493e-2
-0.154, -1.497e-2
-0.153, -1.502e-2
-0.152, -1.506e-2
-0.151, -1.510e-2
-0.150, -1.514e-2
-0.149, -1.519e-2
-0.148, -1.523e-2
-0.147, -1.527e-2
-0.146, -1.531e-2
-0.145, -1.536e-2
-0.144, -1.540e-2
-0.143, -1.544e-2
-0.142, -1.548e-2
-0.141, -1.553e-2
-0.140, -1.557e-2
-0.139, -1.560e-2
-0.138, -1.564e-2
-0.137, -1.569e-2
-0.136, -1.573e-2
-0.135, -1.577e-2
-0.134, -1.581e-2
-0.133, -1.586e-2
-0.132, -1.590e-2
-0.131, -1.593e-2
-0.130, -1.598e-2
-0.129, -1.602e-2
-0.128, -1.606e-2
-0.127, -1.610e-2
-0.126, -1.614e-2
-0.125, -1.619e-2
-0.124, -1.623e-2
-0.123, -1.626e-2
-0.122, -1.630e-2
-0.121, -1.635e-2
-0.120, -1.639e-2
-0.119, -1.643e-2
-0.118, -1.647e-2
-0.117, -1.652e-2
-0.116, -1.656e-2
-0.115, -1.659e-2
-0.114, -1.663e-2
-0.113, -1.668e-2
-0.112, -1.672e-2
-0.111, -1.675e-2
-0.110, -1.679e-2
-0.109, -1.684e-2
-0.108, -1.688e-2
-0.107, -1.692e-2
-0.106, -1.696e-2
-0.105, -1.700e-2
-0.104, -1.704e-2
-0.103, -1.708e-2
-0.102, -1.712e-2
-0.101, -1.717e-2
-0.100, -1.721e-2
-0.099, -1.724e-2
-0.098, -1.728e-2
-0.097, -1.732e-2
-0.096, -1.736e-2
-0.095, -1.740e-2
-0.094, -1.744e-2
-0.093, -1.748e-2
-0.092, -1.752e-2
-0.091, -1.756e-2
-0.090, -1.760e-2
-0.089, -1.764e-2
-0.088, -1.768e-2
-0.087, -1.772e-2
-0.086, -1.775e-2
-0.085, -1.780e-2
-0.084, -1.784e-2
-0.083, -1.788e-2
-0.082, -1.791e-2
-0.081, -1.796e-2
-0.080, -1.800e-2
-0.079, -1.804e-2
-0.078, -1.808e-2
-0.077, -1.812e-2
-0.076, -1.816e-2
-0.075, -1.820e-2
-0.074, -1.823e-2
-0.073, -1.828e-2
-0.072, -1.832e-2
-0.071, -1.835e-2
-0.070, -1.839e-2
-0.069, -1.844e-2
-0.068, -1.848e-2
-0.067, -1.851e-2
-0.066, -1.855e-2
-0.065, -1.860e-2
-0.064, -1.864e-2
-0.063, -1.867e-2
-0.062, -1.871e-2
-0.061, -1.875e-2
-0.060, -1.879e-2
-0.059, -1.883e-2
-0.058, -1.887e-2
-0.057, -1.891e-2
-0.056, -1.895e-2
-0.055, -1.899e-2
-0.054, -1.903e-2
-0.053, -1.907e-2
-0.052, -1.911e-2
-0.051, -1.914e-2
-0.050, -1.918e-2
-0.049, -1.923e-2
-0.048, -1.926e-2
-0.047, -1.929e-2
-0.046, -1.932e-2
-0.045, -1.937e-2
-0.044, -1.940e-2
-0.043, -1.944e-2
-0.042, -1.948e-2
-0.041, -1.952e-2
-0.040, -1.956e-2
-0.039, -1.960e-2
-0.038, -1.963e-2
-0.037, -1.968e-2
-0.036, -1.972e-2
-0.035, -1.975e-2
-0.034, -1.979e-2
-0.033, -1.983e-2
-0.032, -1.987e-2
-0.031, -1.991e-2
-0.030, -1.995e-2
-0.029, -1.999e-2
-0.028, -2.003e-2
-0.027, -2.006e-2
-0.026, -2.010e-2
-0.025, -2.015e-2
-0.024, -2.018e-2
-0.023, -2.022e-2
-0.022, -2.025e-2
-0.021, -2.030e-2
-0.020, -2.034e-2
-0.019, -2.037e-2
-0.018, -2.041e-2
-0.017, -2.045e-2
-0.016, -2.049e-2
-0.015, -2.053e-2
-0.014, -2.056e-2
-0.013, -2.061e-2
-0.012, -2.065e-2
-0.011, -2.068e-2
-0.010, -2.072e-2
-0.009, -2.076e-2
-0.008, -2.080e-2
-0.007, -2.083e-2
-0.006, -2.087e-2
-0.005, -2.092e-2
-0.004, -2.095e-2
-0.003, -2.099e-2
-0.002, -2.103e-2
-0.001, -2.107e-2
-0.000, -2.112e-2
0.001, -2.115e-2
0.002, -2.119e-2
0.003, -2.123e-2
0.004, -2.126e-2
0.005, -2.130e-2
0.006, -2.134e-2
0.007, -2.138e-2
0.008, -2.142e-2
0.009, -2.145e-2
0.010, -2.149e-2
0.011, -2.153e-2
0.012, -2.157e-2
0.013, -2.160e-2
0.014, -2.164e-2
0.015, -2.168e-2
0.016, -2.172e-2
0.017, -2.175e-2
0.018, -2.179e-2
0.019, -2.184e-2
0.020, -2.188e-2
0.021, -2.191e-2
0.022, -2.195e-2
0.023, -2.199e-2
0.024, -2.203e-2
0.025, -2.206e-2
0.026, -2.210e-2
0.027, -2.214e-2
0.028, -2.218e-2
0.029, -2.221e-2
0.030, -2.225e-2
0.031, -2.230e-2
0.032, -2.233e-2
0.033, -2.237e-2
0.034, -2.240e-2
0.035, -2.245e-2
0.036, -2.248e-2
0.037, -2.252e-2
0.038, -2.255e-2
0.039, -2.260e-2
0.040, -2.264e-2
0.041, -2.267e-2
0.042, -2.271e-2
0.043, -2.275e-2
0.044, -2.279e-2
0.045, -2.282e-2
0.046, -2.286e-2
0.047, -2.290e-2
0.048, -2.294e-2
0.049, -2.298e-2
0.050, -2.301e-2
0.051, -2.306e-2
0.052, -2.310e-2
0.053, -2.313e-2
0.054, -2.317e-2
0.055, -2.321e-2
0.056, -2.325e-2
0.057, -2.328e-2
0.058, -2.332e-2
0.059, -2.336e-2
0.060, -2.340e-2
0.061, -2.343e-2
0.062, -2.347e-2
0.063, -2.352e-2
0.064, -2.355e-2
0.065, -2.359e-2
0.066, -2.362e-2
0.067, -2.366e-2
0.068, -2.370e-2
0.069, -2.373e-2
0.070, -2.377e-2
0.071, -2.382e-2
0.072, -2.385e-2
0.073, -2.389e-2
0.074, -2.393e-2
0.075, -2.397e-2
0.076, -2.401e-2
0.077, -2.404e-2
0.078, -2.408e-2
0.079, -2.412e-2
0.080, -2.416e-2
0.081, -2.419e-2
0.082, -2.423e-2
0.083, -2.427e-2
0.084, -2.431e-2
0.085, -2.434e-2
0.086, -2.438e-2
0.087, -2.443e-2
0.088, -2.446e-2
0.089, -2.449e-2
0.090, -2.453e-2
0.091, -2.457e-2
0.092, -2.461e-2
0.093, -2.464e-2
0.094, -2.468e-2
0.095, -2.473e-2
0.096, -2.476e-2
0.097, -2.479e-2
0.098, -2.483e-2
0.099, -2.488e-2
0.100, -2.491e-2
0.101, -2.495e-2
0.102, -2.499e-2
0.103, -2.503e-2
0.104, -2.507e-2
0.105, -2.510e-2
0.106, -2.513e-2
0.107, -2.517e-2
0.108, -2.521e-2
0.109, -2.525e-2
0.110, -2.528e-2
0.111, -2.533e-2
0.112, -2.536e-2
0.113, -2.540e-2
0.114, -2.543e-2
0.115, -2.548e-2
0.116, -2.551e-2
0.117, -2.555e-2
0.118, -2.558e-2
0.119, -2.563e-2
0.120, -2.567e-2
0.121, -2.570e-2
0.122, -2.574e-2
0.123, -2.578e-2
0.124, -2.581e-2
0.125, -2.585e-2
0.126, -2.588e-2
0.127, -2.593e-2
0.128, -2.596e-2
0.129, -2.600e-2
0.130, -2.603e-2
0.131, -2.608e-2
0.132, -2.612e-2
0.133, -2.615e-2
0.134, -2.619e-2
0.135, -2.623e-2
0.136, -2.627e-2
0.137, -2.630e-2
0.138, -2.634e-2
0.139, -2.638e-2
0.140, -2.642e-2
0.141, -2.645e-2
0.142, -2.649e-2
0.143, -2.653e-2
0.144, -2.657e-2
0.145, -2.660e-2
0.146, -2.664e-2
0.147, -2.668e-2
0.148, -2.672e-2
0.149, -2.675e-2
0.150, -2.679e-2
0.151, -2.684e-2
0.152, -2.687e-2
0.153, -2.691e-2
0.154, -2.695e-2
0.155, -2.699e-2
0.156, -2.702e-2
0.157, -2.706e-2
0.158, -2.710e-2
0.159, -2.714e-2
0.160, -2.718e-2
0.161, -2.721e-2
0.162, -2.725e-2
0.163, -2.729e-2
0.164, -2.733e-2
0.165, -2.736e-2
0.166, -2.740e-2
0.167, -2.745e-2
0.168, -2.748e-2
0.169, -2.751e-2
0.170, -2.755e-2
0.171, -2.760e-2
0.172, -2.763e-2
0.173, -2.767e-2
0.174, -2.770e-2
0.175, -2.775e-2
0.176, -2.778e-2
0.177, -2.782e-2
0.178, -2.786e-2
0.179, -2.790e-2
0.180, -2.793e-2
0.181, -2.797e-2
0.182, -2.801e-2
0.183, -2.805e-2
0.184, -2.809e-2
0.185, -2.812e-2
0.186, -2.816e-2
0.187, -2.820e-2
0.188, -2.824e-2
0.189, -2.827e-2
0.190, -2.831e-2
0.191, -2.835e-2
0.192, -2.839e-2
0.193, -2.842e-2
0.194, -2.846e-2
0.195, -2.850e-2
0.196, -2.854e-2
0.197, -2.857e-2
0.198, -2.861e-2
0.199, -2.866e-2
0.200, -2.869e-2
0.201, -2.872e-2
0.202, -2.876e-2
0.203, -2.880e-2
0.204, -2.884e-2
0.205, -2.888e-2
0.206, -2.891e-2
0.207, -2.896e-2
0.208, -2.899e-2
0.209, -2.903e-2
0.210, -2.906e-2
0.211, -2.911e-2
0.212, -2.914e-2
0.213, -2.917e-2
0.214, -2.921e-2
0.215, -2.926e-2
0.216, -2.929e-2
0.217, -2.932e-2
0.218, -2.936e-2
0.219, -2.940e-2
0.220, -2.944e-2
0.221, -2.947e-2
0.222, -2.952e-2
0.223, -2.956e-2
0.224, -2.960e-2
0.225, -2.963e-2
0.226, -2.967e-2
0.227, -2.971e-2
0.228, -2.975e-2
0.229, -2.978e-2
0.230, -2.982e-2
0.231, -2.986e-2
0.232, -2.990e-2
0.233, -2.993e-2
0.234, -2.997e-2
0.235, -3.001e-2
0.236, -3.005e-2
0.237, -3.008e-2
0.238, -3.012e-2
0.239, -3.016e-2
0.240, -3.020e-2
0.241, -3.023e-2
0.242, -3.027e-2
0.243, -3.032e-2
0.244, -3.035e-2
0.245, -3.038e-2
0.246, -3.042e-2
0.247, -3.047e-2
0.248, -3.050e-2
0.249, -3.054e-2
0.250, -3.058e-2
0.251, -3.062e-2
0.252, -3.066e-2
0.253, -3.069e-2
0.254, -3.073e-2
0.255, -3.077e-2
0.256, -3.081e-2
0.257, -3.084e-2
0.258, -3.088e-2
0.259, -3.093e-2
0.260, -3.096e-2
0.261, -3.100e-2
0.262, -3.104e-2
0.263, -3.108e-2
0.264, -3.112e-2
0.265, -3.115e-2
0.266, -3.119e-2
0.267, -3.123e-2
0.268, -3.127e-2
0.269, -3.130e-2
0.270, -3.134e-2
0.271, -3.138e-2
0.272, -3.142e-2
0.273, -3.145e-2
0.274, -3.149e-2
0.275, -3.153e-2
0.276, -3.157e-2
0.277, -3.160e-2
0.278, -3.164e-2
0.279, -3.169e-2
0.280, -3.172e-2
0.281, -3.176e-2
0.282, -3.179e-2
0.283, -3.184e-2
0.284, -3.187e-2
0.285, -3.191e-2
0.286, -3.195e-2
0.287, -3.199e-2
0.288, -3.203e-2
0.289, -3.206e-2
0.290, -3.210e-2
0.291, -3.214e-2
0.292, -3.218e-2
0.293, -3.221e-2
0.294, -3.225e-2
0.295, -3.229e-2
0.296, -3.233e-2
0.297, -3.237e-2
0.298, -3.240e-2
0.299, -3.245e-2
0.300, -3.248e-2
0.301, -3.252e-2
0.302, -3.256e-2
0.303, -3.260e-2
0.304, -3.263e-2
0.305, -3.267e-2
0.306, -3.271e-2
0.307, -3.275e-2
0.308, -3.279e-2
0.309, -3.282e-2
0.310, -3.286e-2
0.311, -3.290e-2
0.312, -3.294e-2
0.313, -3.297e-2
0.314, -3.301e-2
0.315, -3.305e-2
0.316, -3.309e-2
0.317, -3.312e-2
0.318, -3.316e-2
0.319, -3.320e-2
0.320, -3.324e-2
0.321, -3.327e-2
0.322, -3.331e-2
0.323, -3.335e-2
0.324, -3.339e-2
0.325, -3.342e-2
0.326, -3.346e-2
0.327, -3.351e-2
0.328, -3.354e-2
0.329, -3.358e-2
0.330, -3.362e-2
0.331, -3.366e-2
0.332, -3.370e-2
0.333, -3.373e-2
0.334, -3.377e-2
0.335, -3.381e-2
0.336, -3.385e-2
0.337, -3.388e-2
0.338, -3.392e-2
0.339, -3.397e-2
0.340, -3.400e-2
0.341, -3.404e-2
0.342, -3.408e-2
0.343, -3.412e-2
0.344, -3.415e-2
0.345, -3.419e-2
0.346, -3.423e-2
0.347, -3.427e-2
0.348, -3.431e-2
0.349, -3.434e-2
0.350, -3.438e-2
0.351, -3.442e-2
0.352, -3.446e-2
0.353, -3.449e-2
0.354, -3.453e-2
0.355, -3.457e-2
0.356, -3.461e-2
0.357, -3.464e-2
0.358, -3.469e-2
0.359, -3.473e-2
0.360, -3.477e-2
0.361, -3.480e-2
0.362, -3.484e-2
0.363, -3.488e-2
0.364, -3.492e-2
0.365, -3.495e-2
0.366, -3.499e-2
0.367, -3.503e-2
0.368, -3.506e-2
0.369, -3.510e-2
0.370, -3.514e-2
0.371, -3.518e-2
0.372, -3.522e-2
0.373, -3.525e-2
0.374, -3.529e-2
0.375, -3.534e-2
0.376, -3.537e-2
0.377, -3.541e-2
0.378, -3.544e-2
0.379, -3.549e-2
0.380, -3.552e-2
0.381, -3.556e-2
0.382, -3.560e-2
0.383, -3.564e-2
0.384, -3.568e-2
0.385, -3.571e-2
0.386, -3.575e-2
0.387, -3.580e-2
0.388, -3.583e-2
0.389, -3.587e-2
0.390, -3.591e-2
0.391, -3.595e-2
0.392, -3.599e-2
0.393, -3.602e-2
0.394, -3.606e-2
0.395, -3.610e-2
0.396, -3.614e-2
0.397, -3.617e-2
0.398, -3.621e-2
0.399, -3.626e-2
0.400, -3.629e-2
0.401, -3.633e-2
0.402, -3.637e-2
0.403, -3.642e-2
0.404, -3.645e-2
0.405, -3.649e-2
0.406, -3.653e-2
0.407, -3.657e-2
0.408, -3.661e-2
0.409, -3.664e-2
0.410, -3.669e-2
0.411, -3.673e-2
0.412, -3.677e-2
0.413, -3.680e-2
0.414, -3.684e-2
0.415, -3.688e-2
0.416, -3.692e-2
0.417, -3.696e-2
0.418, -3.699e-2
0.419, -3.704e-2
0.420, -3.707e-2
0.421, -3.711e-2
0.422, -3.715e-2
0.423, -3.719e-2
0.424, -3.722e-2
0.425, -3.726e-2
0.426, -3.730e-2
0.427, -3.735e-2
0.428, -3.738e-2
0.429, -3.742e-2
0.430, -3.746e-2
0.431, -3.750e-2
0.432, -3.753e-2
0.433, -3.757e-2
0.434, -3.761e-2
0.435, -3.766e-2
0.436, -3.769e-2
0.437, -3.773e-2
0.438, -3.777e-2
0.439, -3.781e-2
0.440, -3.785e-2
0.441, -3.788e-2
0.442, -3.792e-2
0.443, -3.797e-2
0.444, -3.801e-2
0.445, -3.804e-2
0.446, -3.808e-2
0.447, -3.812e-2
0.448, -3.816e-2
0.449, -3.820e-2
0.450, -3.824e-2
0.451, -3.828e-2
0.452, -3.832e-2
0.453, -3.835e-2
0.454, -3.839e-2
0.455, -3.844e-2
0.456, -3.848e-2
0.457, -3.851e-2
0.458, -3.855e-2
0.459, -3.860e-2
0.460, -3.863e-2
0.461, -3.867e-2
0.462, -3.871e-2
0.463, -3.876e-2
0.464, -3.879e-2
0.465, -3.883e-2
0.466, -3.888e-2
0.467, -3.892e-2
0.468, -3.896e-2
0.469, -3.899e-2
0.470, -3.903e-2
0.471, -3.908e-2
0.472, -3.911e-2
0.473, -3.915e-2
0.474, -3.919e-2
0.475, -3.924e-2
0.476, -3.928e-2
0.477, -3.931e-2
0.478, -3.935e-2
0.479, -3.940e-2
0.480, -3.944e-2
0.481, -3.948e-2
0.482, -3.952e-2
0.483, -3.957e-2
0.484, -3.961e-2
0.485, -3.964e-2
0.486, -3.969e-2
0.487, -3.973e-2
0.488, -3.977e-2
0.489, -3.981e-2
0.490, -3.986e-2
0.491, -3.990e-2
0.492, -3.994e-2
0.493, -3.998e-2
0.494, -4.002e-2
0.495, -4.007e-2
0.496, -4.011e-2
0.497, -4.015e-2
0.498, -4.019e-2
0.499, -4.024e-2
0.500, -4.028e-2
0.501, -4.032e-2
0.502, -4.036e-2
0.503, -4.041e-2
0.504, -4.045e-2
0.505, -4.049e-2
0.506, -4.053e-2
0.507, -4.058e-2
0.508, -4.062e-2
0.509, -4.066e-2
0.510, -4.071e-2
0.511, -4.075e-2
0.512, -4.080e-2
0.513, -4.083e-2
0.514, -4.088e-2
0.515, -4.092e-2
0.516, -4.097e-2
0.517, -4.100e-2
0.518, -4.105e-2
0.519, -4.110e-2
0.520, -4.114e-2
0.521, -4.118e-2
0.522, -4.122e-2
0.523, -4.127e-2
0.524, -4.132e-2
0.525, -4.136e-2
0.526, -4.140e-2
0.527, -4.145e-2
0.528, -4.149e-2
0.529, -4.153e-2
0.530, -4.157e-2
0.531, -4.162e-2
0.532, -4.166e-2
0.533, -4.170e-2
0.534, -4.175e-2
0.535, -4.180e-2
0.536, -4.184e-2
0.537, -4.189e-2
0.538, -4.194e-2
0.539, -4.198e-2
0.540, -4.202e-2
0.541, -4.206e-2
0.542, -4.211e-2
0.543, -4.215e-2
0.544, -4.220e-2
0.545, -4.223e-2
0.546, -4.228e-2
0.547, -4.233e-2
0.548, -4.237e-2
0.549, -4.241e-2
0.550, -4.245e-2
0.551, -4.250e-2
0.552, -4.254e-2
0.553, -4.258e-2
0.554, -4.262e-2
0.555, -4.267e-2
0.556, -4.271e-2
0.557, -4.275e-2
0.558, -4.280e-2
0.559, -4.284e-2
0.560, -4.288e-2
0.561, -4.292e-2
0.562, -4.296e-2
0.563, -4.301e-2
0.564, -4.305e-2
0.565, -4.309e-2
0.566, -4.313e-2
0.567, -4.318e-2
0.568, -4.322e-2
0.569, -4.325e-2
0.570, -4.330e-2
0.571, -4.335e-2
0.572, -4.339e-2
0.573, -4.342e-2
0.574, -4.347e-2
0.575, -4.351e-2
0.576, -4.355e-2
0.577, -4.359e-2
0.578, -4.363e-2
0.579, -4.368e-2
0.580, -4.371e-2
0.581, -4.375e-2
0.582, -4.380e-2
0.583, -4.385e-2
0.584, -4.388e-2
0.585, -4.392e-2
0.586, -4.396e-2
0.587, -4.401e-2
0.588, -4.405e-2
0.589, -4.408e-2
0.590, -4.413e-2
0.591, -4.417e-2
0.592, -4.421e-2
0.593, -4.425e-2
0.594, -4.429e-2
0.595, -4.434e-2
0.596, -4.437e-2
0.597, -4.441e-2
0.598, -4.445e-2
0.599, -4.450e-2
0.600, -4.453e-2
0.601, -4.457e-2
0.602, -4.461e-2
0.603, -4.465e-2
0.604, -4.469e-2
0.605, -4.473e-2
0.606, -4.477e-2
0.607, -4.481e-2
0.608, -4.485e-2
0.609, -4.489e-2
0.610, -4.493e-2
0.611, -4.497e-2
0.612, -4.501e-2
0.613, -4.504e-2
0.614, -4.508e-2
0.615, -4.513e-2
0.616, -4.516e-2
0.617, -4.520e-2
0.618, -4.524e-2
0.619, -4.528e-2
0.620, -4.531e-2
0.621, -4.535e-2
0.622, -4.539e-2
0.623, -4.542e-2
0.624, -4.546e-2
0.625, -4.549e-2
0.626, -4.553e-2
0.627, -4.558e-2
0.628, -4.561e-2
0.629, -4.564e-2
0.630, -4.568e-2
0.631, -4.572e-2
0.632, -4.575e-2
0.633, -4.578e-2
0.634, -4.582e-2
0.635, -4.585e-2
0.636, -4.588e-2
0.637, -4.591e-2
0.638, -4.595e-2
0.639, -4.599e-2
0.640, -4.602e-2
0.641, -4.604e-2
0.642, -4.608e-2
0.643, -4.612e-2
0.644, -4.615e-2
0.645, -4.618e-2
0.646, -4.621e-2
0.647, -4.625e-2
0.648, -4.627e-2
0.649, -4.631e-2
0.650, -4.634e-2
0.651, -4.638e-2
0.652, -4.641e-2
0.653, -4.644e-2
0.654, -4.647e-2
0.655, -4.650e-2
0.656, -4.653e-2
0.657, -4.656e-2
0.658, -4.659e-2
0.659, -4.662e-2
0.660, -4.665e-2
0.661, -4.668e-2
0.662, -4.671e-2
0.663, -4.675e-2
0.664, -4.677e-2
0.665, -4.680e-2
0.666, -4.683e-2
0.667, -4.687e-2
0.668, -4.689e-2
0.669, -4.692e-2
0.670, -4.695e-2
0.671, -4.698e-2
0.672, -4.701e-2
0.673, -4.703e-2
0.674, -4.706e-2
0.675, -4.709e-2
0.676, -4.712e-2
0.677, -4.714e-2
0.678, -4.717e-2
0.679, -4.720e-2
0.680, -4.723e-2
0.681, -4.725e-2
0.682, -4.729e-2
0.683, -4.731e-2
0.684, -4.734e-2
0.685, -4.736e-2
0.686, -4.739e-2
0.687, -4.743e-2
0.688, -4.745e-2
0.689, -4.747e-2
0.690, -4.751e-2
0.691, -4.753e-2
0.692, -4.756e-2
0.693, -4.758e-2
0.694, -4.762e-2
0.695, -4.765e-2
0.696, -4.767e-2
0.697, -4.770e-2
0.698, -4.773e-2
0.699, -4.776e-2
0.700, -4.778e-2
0.701, -4.781e-2
0.702, -4.784e-2
0.703, -4.787e-2
0.704, -4.789e-2
0.705, -4.791e-2
0.706, -4.794e-2
0.707, -4.797e-2
0.708, -4.799e-2
0.709, -4.802e-2
0.710, -4.805e-2
0.711, -4.808e-2
0.712, -4.810e-2
0.713, -4.813e-2
0.714, -4.815e-2
0.715, -4.818e-2
0.716, -4.821e-2
0.717, -4.823e-2
0.718, -4.826e-2
0.719, -4.829e-2
0.720, -4.832e-2
0.721, -4.834e-2
0.722, -4.837e-2
0.723, -4.840e-2
0.724, -4.842e-2
0.725, -4.844e-2
0.726, -4.847e-2
0.727, -4.850e-2
0.728, -4.853e-2
0.729, -4.855e-2
0.730, -4.858e-2
0.731, -4.861e-2
0.732, -4.863e-2
0.733, -4.866e-2
0.734, -4.869e-2
0.735, -4.872e-2
0.736, -4.874e-2
0.737, -4.876e-2
0.738, -4.878e-2
0.739, -4.881e-2
0.740, -4.883e-2
0.741, -4.886e-2
0.742, -4.889e-2
0.743, -4.893e-2
0.744, -4.895e-2
0.745, -4.899e-2
0.746, -4.902e-2
0.747, -4.905e-2
0.748, -4.907e-2
0.749, -4.910e-2
0.750, -4.913e-2
0.751, -4.915e-2
0.752, -4.918e-2
0.753, -4.920e-2
0.754, -4.923e-2
0.755, -4.926e-2
0.756, -4.928e-2
0.757, -4.930e-2
0.758, -4.933e-2
0.759, -4.935e-2
0.760, -4.938e-2
0.761, -4.940e-2
0.762, -4.943e-2
0.763, -4.946e-2
0.764, -4.948e-2
0.765, -4.950e-2
0.766, -4.953e-2
0.767, -4.956e-2
0.768, -4.959e-2
0.769, -4.961e-2
0.770, -4.964e-2
0.771, -4.967e-2
0.772, -4.969e-2
0.773, -4.971e-2
0.774, -4.974e-2
0.775, -4.977e-2
0.776, -4.979e-2
0.777, -4.981e-2
0.778, -4.984e-2
0.779, -4.987e-2
0.780, -4.989e-2
0.781, -4.992e-2
0.782, -4.995e-2
0.783, -4.997e-2
0.784, -5.000e-2
0.785, -5.002e-2
0.786, -5.005e-2
0.787, -5.008e-2
0.788, -5.010e-2
0.789, -5.012e-2
0.790, -5.015e-2
0.791, -5.017e-2
0.792, -5.019e-2
0.793, -5.022e-2
0.794, -5.025e-2
0.795, -5.027e-2
0.796, -5.030e-2
0.797, -5.032e-2
0.798, -5.035e-2
0.799, -5.038e-2
0.800, -5.025e-2
0.799, -4.985e-2
0.798, -4.952e-2
0.797, -4.922e-2
0.796, -4.892e-2
0.795, -4.865e-2
0.794, -4.839e-2
0.793, -4.813e-2
0.792, -4.788e-2
0.791, -4.764e-2
0.790, -4.740e-2
0.789, -4.718e-2
0.788, -4.695e-2
0.787, -4.672e-2
0.786, -4.650e-2
0.785, -4.629e-2
0.784, -4.607e-2
0.783, -4.586e-2
0.782, -4.566e-2
0.781, -4.546e-2
0.780, -4.525e-2
0.779, -4.505e-2
0.778, -4.486e-2
0.777, -4.467e-2
0.776, -4.448e-2
0.775, -4.429e-2
0.774, -4.410e-2
0.773, -4.392e-2
0.772, -4.373e-2
0.771, -4.354e-2
0.770, -4.337e-2
0.769, -4.319e-2
0.768, -4.301e-2
0.767, -4.283e-2
0.766, -4.266e-2
0.765, -4.249e-2
0.764, -4.231e-2
0.763, -4.214e-2
0.762, -4.198e-2
0.761, -4.181e-2
0.760, -4.164e-2
0.759, -4.147e-2
0.758, -4.131e-2
0.757, -4.115e-2
0.756, -4.099e-2
0.755, -4.083e-2
0.754, -4.067e-2
0.753, -4.052e-2
0.752, -4.035e-2
0.751, -4.020e-2
0.750, -4.004e-2
0.749, -3.989e-2
0.748, -3.973e-2
0.747, -3.958e-2
0.746, -3.943e-2
0.745, -3.928e-2
0.744, -3.913e-2
0.743, -3.898e-2
0.742, -3.883e-2
0.741, -3.868e-2
0.740, -3.853e-2
0.739, -3.839e-2
0.738, -3.825e-2
0.737, -3.811e-2
0.736, -3.796e-2
0.735, -3.782e-2
0.734, -3.768e-2
0.733, -3.754e-2
0.732, -3.740e-2
0.731, -3.726e-2
0.730, -3.712e-2
0.729, -3.699e-2
0.728, -3.685e-2
0.727, -3.671e-2
0.726, -3.659e-2
0.725, -3.645e-2
0.724, -3.631e-2
0.723, -3.617e-2
0.722, -3.604e-2
0.721, -3.591e-2
0.720, -3.578e-2
0.719, -3.564e-2
0.718, -3.551e-2
0.717, -3.538e-2
0.716, -3.524e-2
0.715, -3.511e-2
0.714, -3.499e-2
0.713, -3.486e-2
0.712, -3.473e-2
0.711, -3.460e-2
0.710, -3.448e-2
0.709, -3.435e-2
0.708, -3.422e-2
0.707, -3.410e-2
0.706, -3.397e-2
0.705, -3.385e-2
0.704, -3.372e-2
0.703, -3.359e-2
0.702, -3.348e-2
0.701, -3.336e-2
0.700, -3.323e-2
0.699, -3.311e-2
0.698, -3.299e-2
0.697, -3.288e-2
0.696, -3.275e-2
0.695, -3.263e-2
0.694, -3.252e-2
0.693, -3.240e-2
0.692, -3.228e-2
0.691, -3.216e-2
0.690, -3.204e-2
0.689, -3.193e-2
0.688, -3.181e-2
0.687, -3.169e-2
0.686, -3.158e-2
0.685, -3.146e-2
0.684, -3.134e-2
0.683, -3.123e-2
0.682, -3.112e-2
0.681, -3.100e-2
0.680, -3.088e-2
0.679, -3.077e-2
0.678, -3.066e-2
0.677, -3.054e-2
0.676, -3.043e-2
0.675, -3.032e-2
0.674, -3.021e-2
0.673, -3.010e-2
0.672, -2.998e-2
0.671, -2.987e-2
0.670, -2.976e-2
0.669, -2.966e-2
0.668, -2.954e-2
0.667, -2.943e-2
0.666, -2.932e-2
0.665, -2.922e-2
0.664, -2.910e-2
0.663, -2.900e-2
0.662, -2.889e-2
0.661, -2.879e-2
0.660, -2.868e-2
0.659, -2.857e-2
0.658, -2.846e-2
0.657, -2.836e-2
0.656, -2.825e-2
0.655, -2.814e-2
0.654, -2.804e-2
0.653, -2.793e-2
0.652, -2.782e-2
0.651, -2.771e-2
0.650, -2.762e-2
0.649, -2.751e-2
0.648, -2.741e-2
0.647, -2.730e-2
0.646, -2.720e-2
0.645, -2.709e-2
0.644, -2.699e-2
0.643, -2.688e-2
0.642, -2.678e-2
0.641, -2.668e-2
0.640, -2.657e-2
0.639, -2.647e-2
0.638, -2.637e-2
0.637, -2.627e-2
0.636, -2.617e-2
0.635, -2.606e-2
0.634, -2.596e-2
0.633, -2.586e-2
0.632, -2.575e-2
0.631, -2.565e-2
0.630, -2.555e-2
0.629, -2.545e-2
0.628, -2.534e-2
0.627, -2.524e-2
0.626, -2.514e-2
0.625, -2.505e-2
0.624, -2.495e-2
0.623, -2.485e-2
0.622, -2.475e-2
0.621, -2.466e-2
0.620, -2.455e-2
0.619, -2.445e-2
0.618, -2.436e-2
0.617, -2.427e-2
0.616, -2.417e-2
0.615, -2.406e-2
0.614, -2.397e-2
0.613, -2.387e-2
0.612, -2.377e-2
0.611, -2.367e-2
0.610, -2.358e-2
0.609, -2.349e-2
0.608, -2.339e-2
0.607, -2.329e-2
0.606, -2.320e-2
0.605, -2.310e-2
0.604, -2.300e-2
0.603, -2.290e-2
0.602, -2.281e-2
0.601, -2.272e-2
0.600, -2.262e-2
0.599, -2.252e-2
0.598, -2.243e-2
0.597, -2.234e-2
0.596, -2.224e-2
0.595, -2.214e-2
0.594, -2.205e-2
0.593, -2.196e-2
0.592, -2.186e-2
0.591, -2.176e-2
0.590, -2.168e-2
0.589, -2.158e-2
0.588, -2.148e-2
0.587, -2.139e-2
0.586, -2.130e-2
0.585, -2.121e-2
0.584, -2.112e-2
0.583, -2.102e-2
0.582, -2.093e-2
0.581, -2.084e-2
0.580, -2.074e-2
0.579, -2.065e-2
0.578, -2.056e-2
0.577, -2.047e-2
0.576, -2.037e-2
0.575, -2.028e-2
0.574, -2.019e-2
0.573, -2.010e-2
0.572, -2.000e-2
0.571, -1.991e-2
0.570, -1.982e-2
0.569, -1.973e-2
0.568, -1.964e-2
0.567, -1.954e-2
0.566, -1.946e-2
0.565, -1.936e-2
0.564, -1.928e-2
0.563, -1.919e-2
0.562, -1.911e-2
0.561, -1.901e-2
0.560, -1.892e-2
0.559, -1.883e-2
0.558, -1.874e-2
0.557, -1.865e-2
0.556, -1.856e-2
0.555, -1.847e-2
0.554, -1.838e-2
0.553, -1.829e-2
0.552, -1.820e-2
0.551, -1.811e-2
0.550, -1.802e-2
0.549, -1.793e-2
0.548, -1.784e-2
0.547, -1.774e-2
0.546, -1.766e-2
0.545, -1.757e-2
0.544, -1.748e-2
0.543, -1.739e-2
0.542, -1.730e-2
0.541, -1.722e-2
0.540, -1.712e-2
0.539, -1.703e-2
0.538, -1.695e-2
0.537, -1.686e-2
0.536, -1.677e-2
0.535, -1.668e-2
0.534, -1.659e-2
0.533, -1.651e-2
0.532, -1.641e-2
0.531, -1.632e-2
0.530, -1.624e-2
0.529, -1.615e-2
0.528, -1.606e-2
0.527, -1.597e-2
0.526, -1.588e-2
0.525, -1.580e-2
0.524, -1.570e-2
0.523, -1.561e-2
0.522, -1.553e-2
0.521, -1.545e-2
0.520, -1.536e-2
0.519, -1.526e-2
0.518, -1.518e-2
0.517, -1.509e-2
0.516, -1.500e-2
0.515, -1.491e-2
0.514, -1.483e-2
0.513, -1.475e-2
0.512, -1.465e-2
0.511, -1.456e-2
0.510, -1.448e-2
0.509, -1.440e-2
0.508, -1.431e-2
0.507, -1.422e-2
0.506, -1.414e-2
0.505, -1.405e-2
0.504, -1.396e-2
0.503, -1.388e-2
0.502, -1.380e-2
0.501, -1.371e-2
0.500, -1.362e-2
0.499, -1.354e-2
0.498, -1.345e-2
0.497, -1.337e-2
0.496, -1.329e-2
0.495, -1.320e-2
0.494, -1.312e-2
0.493, -1.304e-2
0.492, -1.295e-2
0.491, -1.287e-2
0.490, -1.279e-2
0.489, -1.271e-2
0.488, -1.262e-2
0.487, -1.253e-2
0.486, -1.246e-2
0.485, -1.237e-2
0.484, -1.228e-2
0.483, -1.220e-2
0.482, -1.212e-2
0.481, -1.204e-2
0.480, -1.195e-2
0.479, -1.187e-2
0.478, -1.179e-2
0.477, -1.171e-2
0.476, -1.163e-2
0.475, -1.155e-2
0.474, -1.147e-2
0.473, -1.139e-2
0.472, -1.130e-2
0.471, -1.122e-2
0.470, -1.114e-2
0.469, -1.106e-2
0.468, -1.098e-2
0.467, -1.090e-2
0.466, -1.082e-2
0.465, -1.074e-2
0.464, -1.066e-2
0.463, -1.058e-2
0.462, -1.050e-2
0.461, -1.042e-2
0.460, -1.034e-2
0.459, -1.026e-2
0.458, -1.019e-2
0.457, -1.011e-2
0.456, -1.003e-2
0.455, -9.949e-3
0.454, -9.876e-3
0.453, -9.797e-3
0.452, -9.717e-3
0.451, -9.638e-3
0.450, -9.566e-3
0.449, -9.491e-3
0.448, -9.410e-3
0.447, -9.332e-3
0.446, -9.261e-3
0.445, -9.187e-3
0.444, -9.108e-3
0.443, -9.030e-3
0.442, -8.961e-3
0.441, -8.885e-3
0.440, -8.806e-3
0.439, -8.730e-3
0.438, -8.665e-3
0.437, -8.590e-3
0.436, -8.511e-3
0.435, -8.435e-3
0.434, -8.365e-3
0.433, -8.294e-3
0.432, -8.215e-3
0.431, -8.141e-3
0.430, -8.074e-3
0.429, -8.000e-3
0.428, -7.924e-3
0.427, -7.851e-3
0.426, -7.786e-3
0.425, -7.715e-3
0.424, -7.639e-3
0.423, -7.566e-3
0.422, -7.501e-3
0.421, -7.433e-3
0.420, -7.356e-3
0.419, -7.284e-3
0.418, -7.219e-3
0.417, -7.150e-3
0.416, -7.076e-3
0.415, -7.005e-3
0.414, -6.943e-3
0.413, -6.873e-3
0.412, -6.800e-3
0.411, -6.730e-3
0.410, -6.666e-3
0.409, -6.594e-3
0.408, -6.525e-3
0.407, -6.453e-3
0.406, -6.390e-3
0.405, -6.328e-3
0.404, -6.254e-3
0.403, -6.185e-3
0.402, -6.123e-3
0.401, -6.058e-3
0.400, -5.989e-3
0.399, -5.920e-3
0.398, -5.861e-3
0.397, -5.795e-3
0.396, -5.724e-3
0.395, -5.660e-3
0.394, -5.598e-3
0.393, -5.534e-3
0.392, -5.468e-3
0.391, -5.399e-3
0.390, -5.341e-3
0.389, -5.279e-3
0.388, -5.209e-3
0.387, -5.143e-3
0.386, -5.084e-3
0.385, -5.020e-3
0.384, -4.949e-3
0.383, -4.882e-3
0.382, -4.826e-3
0.381, -4.760e-3
0.380, -4.694e-3
0.379, -4.629e-3
0.378, -4.571e-3
0.377, -4.505e-3
0.376, -4.441e-3
0.375, -4.374e-3
0.374, -4.317e-3
0.373, -4.257e-3
0.372, -4.187e-3
0.371, -4.124e-3
0.370, -4.068e-3
0.369, -4.006e-3
0.368, -3.940e-3
0.367, -3.875e-3
0.366, -3.818e-3
0.365, -3.758e-3
0.364, -3.691e-3
0.363, -3.633e-3
0.362, -3.580e-3
0.361, -3.519e-3
0.360, -3.453e-3
0.359, -3.390e-3
0.358, -3.334e-3
0.357, -3.273e-3
0.356, -3.207e-3
0.355, -3.148e-3
0.354, -3.093e-3
0.353, -3.033e-3
0.352, -2.965e-3
0.351, -2.907e-3
0.350, -2.856e-3
0.349, -2.797e-3
0.348, -2.732e-3
0.347, -2.672e-3
0.346, -2.618e-3
0.345, -2.559e-3
0.344, -2.496e-3
0.343, -2.435e-3
0.342, -2.384e-3
0.341, -2.324e-3
0.340, -2.262e-3
0.339, -2.200e-3
0.338, -2.149e-3
0.337, -2.090e-3
0.336, -2.028e-3
0.335, -1.971e-3
0.334, -1.917e-3
0.333, -1.858e-3
0.332, -1.796e-3
0.331, -1.737e-3
0.330, -1.686e-3
0.329, -1.628e-3
0.328, -1.568e-3
0.327, -1.510e-3
0.326, -1.458e-3
0.325, -1.402e-3
0.324, -1.339e-3
0.323, -1.282e-3
0.322, -1.228e-3
0.321, -1.172e-3
0.320, -1.109e-3
0.319, -1.049e-3
0.318, -9.991e-4
0.317, -9.441e-4
0.316, -8.817e-4
0.315, -8.239e-4
0.314, -7.694e-4
0.313, -7.133e-4
0.312, -6.523e-4
0.311, -5.927e-4
0.310, -5.418e-4
0.309, -4.846e-4
0.308, -4.241e-4
0.307, -3.613e-4
0.306, -3.096e-4
0.305, -2.556e-4
0.304, -1.938e-4
0.303, -1.360e-4
0.302, -8.728e-5
0.301, -2.906e-5
0.300, 3.319e-5
0.299, 9.092e-5
0.298, 1.420e-4
0.297, 1.956e-4
0.296, 2.572e-4
0.295, 3.146e-4
0.294, 3.668e-4
0.293, 4.250e-4
0.292, 4.857e-4
0.291, 5.426e-4
0.290, 5.934e-4
0.289, 6.516e-4
0.288, 7.123e-4
0.287, 7.703e-4
0.286, 8.217e-4
0.285, 8.783e-4
0.284, 9.369e-4
0.283, 9.935e-4
0.282, 1.043e-3
0.281, 1.101e-3
0.280, 1.161e-3
0.279, 1.217e-3
0.278, 1.267e-3
0.277, 1.323e-3
0.276, 1.382e-3
0.275, 1.439e-3
0.274, 1.491e-3
0.273, 1.546e-3
0.272, 1.604e-3
0.271, 1.661e-3
0.270, 1.712e-3
0.269, 1.767e-3
0.268, 1.825e-3
0.267, 1.881e-3
0.266, 1.931e-3
0.265, 1.985e-3
0.264, 2.046e-3
0.263, 2.101e-3
0.262, 2.152e-3
0.261, 2.205e-3
0.260, 2.264e-3
0.259, 2.319e-3
0.258, 2.367e-3
0.257, 2.419e-3
0.256, 2.480e-3
0.255, 2.539e-3
0.254, 2.586e-3
0.253, 2.642e-3
0.252, 2.702e-3
0.251, 2.756e-3
0.250, 2.805e-3
0.249, 2.860e-3
0.248, 2.918e-3
0.247, 2.974e-3
0.246, 3.023e-3
0.245, 3.076e-3
0.244, 3.134e-3
0.243, 3.189e-3
0.242, 3.236e-3
0.241, 3.290e-3
0.240, 3.348e-3
0.239, 3.404e-3
0.238, 3.452e-3
0.237, 3.507e-3
0.236, 3.562e-3
0.235, 3.614e-3
0.234, 3.661e-3
0.233, 3.715e-3
0.232, 3.771e-3
0.231, 3.825e-3
0.230, 3.876e-3
0.229, 3.928e-3
0.228, 3.983e-3
0.227, 4.030e-3
0.226, 4.076e-3
0.225, 4.133e-3
0.224, 4.194e-3
0.223, 4.251e-3
0.222, 4.298e-3
0.221, 4.353e-3
0.220, 4.411e-3
0.219, 4.465e-3
0.218, 4.512e-3
0.217, 4.568e-3
0.216, 4.626e-3
0.215, 4.682e-3
0.214, 4.727e-3
0.213, 4.780e-3
0.212, 4.836e-3
0.211, 4.890e-3
0.210, 4.937e-3
0.209, 4.987e-3
0.208, 5.041e-3
0.207, 5.092e-3
0.206, 5.138e-3
0.205, 5.190e-3
0.204, 5.245e-3
0.203, 5.293e-3
0.202, 5.339e-3
0.201, 5.391e-3
0.200, 5.444e-3
0.199, 5.495e-3
0.198, 5.540e-3
0.197, 5.589e-3
0.196, 5.643e-3
0.195, 5.690e-3
0.194, 5.732e-3
0.193, 5.780e-3
0.192, 5.837e-3
0.191, 5.888e-3
0.190, 5.930e-3
0.189, 5.979e-3
0.188, 6.034e-3
0.187, 6.083e-3
0.186, 6.127e-3
0.185, 6.178e-3
0.184, 6.230e-3
0.183, 6.280e-3
0.182, 6.320e-3
0.181, 6.370e-3
0.180, 6.424e-3
0.179, 6.467e-3
0.178, 6.511e-3
0.177, 6.562e-3
0.176, 6.620e-3
0.175, 6.668e-3
0.174, 6.710e-3
0.173, 6.759e-3
0.172, 6.813e-3
0.171, 6.863e-3
0.170, 6.906e-3
0.169, 6.951e-3
0.168, 7.002e-3
0.167, 7.049e-3
0.166, 7.095e-3
0.165, 7.141e-3
0.164, 7.192e-3
0.163, 7.242e-3
0.162, 7.284e-3
0.161, 7.335e-3
0.160, 7.387e-3
0.159, 7.435e-3
0.158, 7.476e-3
0.157, 7.523e-3
0.156, 7.576e-3
0.155, 7.623e-3
0.154, 7.667e-3
0.153, 7.718e-3
0.152, 7.770e-3
0.151, 7.817e-3
0.150, 7.856e-3
0.149, 7.903e-3
0.148, 7.954e-3
0.147, 8.006e-3
0.146, 8.047e-3
0.145, 8.094e-3
0.144, 8.144e-3
0.143, 8.192e-3
0.142, 8.234e-3
0.141, 8.282e-3
0.140, 8.335e-3
0.139, 8.382e-3
0.138, 8.423e-3
0.137, 8.471e-3
0.136, 8.523e-3
0.135, 8.572e-3
0.134, 8.615e-3
0.133, 8.657e-3
0.132, 8.709e-3
0.131, 8.758e-3
0.130, 8.800e-3
0.129, 8.846e-3
0.128, 8.895e-3
0.127, 8.943e-3
0.126, 8.984e-3
0.125, 9.031e-3
0.124, 9.082e-3
0.123, 9.126e-3
0.122, 9.166e-3
0.121, 9.215e-3
0.120, 9.268e-3
0.119, 9.315e-3
0.118, 9.354e-3
0.117, 9.399e-3
0.116, 9.451e-3
0.115, 9.499e-3
0.114, 9.539e-3
0.113, 9.586e-3
0.112, 9.636e-3
0.111, 9.683e-3
0.110, 9.723e-3
0.109, 9.770e-3
0.108, 9.822e-3
0.107, 9.866e-3
0.106, 9.906e-3
0.105, 9.953e-3
0.104, 1.000e-2
0.103, 1.005e-2
0.102, 1.009e-2
0.101, 1.014e-2
0.100, 1.019e-2
0.099, 1.023e-2
0.098, 1.027e-2
0.097, 1.032e-2
0.096, 1.036e-2
0.095, 1.041e-2
0.094, 1.045e-2
0.093, 1.050e-2
0.092, 1.055e-2
0.091, 1.059e-2
0.090, 1.063e-2
0.089, 1.067e-2
0.088, 1.073e-2
0.087, 1.077e-2
0.086, 1.081e-2
0.085, 1.086e-2
0.084, 1.091e-2
0.083, 1.095e-2
0.082, 1.099e-2
0.081, 1.104e-2
0.080, 1.109e-2
0.079, 1.114e-2
0.078, 1.117e-2
0.077, 1.122e-2
0.076, 1.127e-2
0.075, 1.131e-2
0.074, 1.135e-2
0.073, 1.140e-2
0.072, 1.145e-2
0.071, 1.149e-2
0.070, 1.153e-2
0.069, 1.158e-2
0.068, 1.163e-2
0.067, 1.167e-2
0.066, 1.171e-2
0.065, 1.176e-2
0.064, 1.181e-2
0.063, 1.185e-2
0.062, 1.189e-2
0.061, 1.194e-2
0.060, 1.198e-2
0.059, 1.203e-2
0.058, 1.207e-2
0.057, 1.210e-2
0.056, 1.214e-2
0.055, 1.219e-2
0.054, 1.222e-2
0.053, 1.227e-2
0.052, 1.232e-2
0.051, 1.237e-2
0.050, 1.241e-2
0.049, 1.245e-2
0.048, 1.250e-2
0.047, 1.254e-2
0.046, 1.258e-2
0.045, 1.263e-2
0.044, 1.268e-2
0.043, 1.272e-2
0.042, 1.276e-2
0.041, 1.281e-2
0.040, 1.285e-2
0.039, 1.290e-2
0.038, 1.293e-2
0.037, 1.298e-2
0.036, 1.303e-2
0.035, 1.307e-2
0.034, 1.311e-2
0.033, 1.315e-2
0.032, 1.320e-2
0.031, 1.325e-2
0.030, 1.329e-2
0.029, 1.333e-2
0.028, 1.338e-2
0.027, 1.342e-2
0.026, 1.346e-2
0.025, 1.351e-2
0.024, 1.356e-2
0.023, 1.360e-2
0.022, 1.364e-2
0.021, 1.368e-2
0.020, 1.373e-2
0.019, 1.377e-2
0.018, 1.381e-2
0.017, 1.386e-2
0.016, 1.390e-2
0.015, 1.395e-2
0.014, 1.399e-2
0.013, 1.403e-2
0.012, 1.408e-2
0.011, 1.412e-2
0.010, 1.416e-2
0.009, 1.420e-2
0.008, 1.425e-2
0.007, 1.429e-2
0.006, 1.433e-2
0.005, 1.437e-2
0.004, 1.442e-2
0.003, 1.446e-2
0.002, 1.450e-2
0.001, 1.454e-2
0.000, 1.460e-2
-0.001, 1.465e-2
-0.002, 1.468e-2
-0.003, 1.473e-2
-0.004, 1.477e-2
-0.005, 1.482e-2
-0.006, 1.485e-2
-0.007, 1.490e-2
-0.008, 1.495e-2
-0.009, 1.499e-2
-0.010, 1.502e-2
-0.011, 1.507e-2
-0.012, 1.511e-2
-0.013, 1.516e-2
-0.014, 1.519e-2
-0.015, 1.524e-2
-0.016, 1.529e-2
-0.017, 1.533e-2
-0.018, 1.537e-2
-0.019, 1.541e-2
-0.020, 1.546e-2
-0.021, 1.550e-2
-0.022, 1.554e-2
-0.023, 1.558e-2
-0.024, 1.563e-2
-0.025, 1.567e-2
-0.026, 1.571e-2
-0.027, 1.576e-2
-0.028, 1.580e-2
-0.029, 1.584e-2
-0.030, 1.588e-2
-0.031, 1.592e-2
-0.032, 1.597e-2
-0.033, 1.601e-2
-0.034, 1.605e-2
-0.035, 1.609e-2
-0.036, 1.614e-2
-0.037, 1.618e-2
-0.038, 1.622e-2
-0.039, 1.626e-2
-0.040, 1.631e-2
-0.041, 1.635e-2
-0.042, 1.639e-2
-0.043, 1.643e-2
-0.044, 1.648e-2
-0.045, 1.652e-2
-0.046, 1.656e-2
-0.047, 1.661e-2
-0.048, 1.665e-2
-0.049, 1.669e-2
-0.050, 1.672e-2
-0.051, 1.677e-2
-0.052, 1.682e-2
-0.053, 1.686e-2
-0.054, 1.690e-2
-0.055, 1.694e-2
-0.056, 1.699e-2
-0.057, 1.703e-2
-0.058, 1.707e-2
-0.059, 1.711e-2
-0.060, 1.715e-2
-0.061, 1.720e-2
-0.062, 1.723e-2
-0.063, 1.727e-2
-0.064, 1.732e-2
-0.065, 1.736e-2
-0.066, 1.740e-2
-0.067, 1.744e-2
-0.068, 1.749e-2
-0.069, 1.753e-2
-0.070, 1.756e-2
-0.071, 1.761e-2
-0.072, 1.765e-2
-0.073, 1.770e-2
-0.074, 1.773e-2
-0.075, 1.777e-2
-0.076, 1.782e-2
-0.077, 1.786e-2
-0.078, 1.790e-2
-0.079, 1.794e-2
-0.080, 1.798e-2
-0.081, 1.803e-2
-0.082, 1.806e-2
-0.083, 1.810e-2
-0.084, 1.815e-2
-0.085, 1.819e-2
-0.086, 1.822e-2
-0.087, 1.826e-2
-0.088, 1.831e-2
-0.089, 1.835e-2
-0.090, 1.839e-2
-0.091, 1.843e-2
-0.092, 1.847e-2
-0.093, 1.851e-2
-0.094, 1.855e-2
-0.095, 1.859e-2
-0.096, 1.864e-2
-0.097, 1.868e-2
-0.098, 1.872e-2
-0.099, 1.876e-2
-0.100, 1.880e-2
-0.101, 1.884e-2
-0.102, 1.888e-2
-0.103, 1.892e-2
-0.104, 1.897e-2
-0.105, 1.901e-2
-0.106, 1.904e-2
-0.107, 1.909e-2
-0.108, 1.913e-2
-0.109, 1.917e-2
-0.110, 1.921e-2
-0.111, 1.925e-2
-0.112, 1.929e-2
-0.113, 1.934e-2
-0.114, 1.937e-2
-0.115, 1.941e-2
-0.116, 1.946e-2
-0.117, 1.950e-2
-0.118, 1.953e-2
-0.119, 1.957e-2
-0.120, 1.962e-2
-0.121, 1.966e-2
-0.122, 1.970e-2
-0.123, 1.974e-2
-0.124, 1.978e-2
-0.125, 1.982e-2
-0.126, 1.985e-2
-0.127, 1.990e-2
-0.128, 1.994e-2
-0.129, 1.999e-2
-0.130, 2.002e-2
-0.131, 2.006e-2
-0.132, 2.011e-2
-0.133, 2.014e-2
-0.134, 2.018e-2
-0.135, 2.022e-2
-0.136, 2.027e-2
-0.137, 2.031e-2
-0.138, 2.034e-2
-0.139, 2.038e-2
-0.140, 2.043e-2
-0.141, 2.047e-2
-0.142, 2.050e-2
-0.143, 2.054e-2
-0.144, 2.059e-2
-0.145, 2.063e-2
-0.146, 2.066e-2
-0.147, 2.070e-2
-0.148, 2.075e-2
-0.149, 2.079e-2
-0.150, 2.082e-2
-0.151, 2.086e-2
-0.152, 2.091e-2
-0.153, 2.095e-2
-0.154, 2.098e-2
-0.155, 2.102e-2
-0.156, 2.107e-2
-0.157, 2.111e-2
-0.158, 2.114e-2
-0.159, 2.118e-2
-0.160, 2.123e-2
-0.161, 2.127e-2
-0.162, 2.130e-2
-0.163, 2.134e-2
-0.164, 2.139e-2
-0.165, 2.142e-2
-0.166, 2.146e-2
-0.167, 2.150e-2
-0.168, 2.154e-2
-0.169, 2.158e-2
-0.170, 2.162e-2
-0.171, 2.166e-2
-0.172, 2.170e-2
-0.173, 2.174e-2
-0.174, 2.178e-2
-0.175, 2.182e-2
-0.176, 2.186e-2
-0.177, 2.190e-2
-0.178, 2.193e-2
-0.179, 2.197e-2
-0.180, 2.202e-2
-0.181, 2.205e-2
-0.182, 2.208e-2
-0.183, 2.213e-2
-0.184, 2.217e-2
-0.185, 2.221e-2
-0.186, 2.224e-2
-0.187, 2.229e-2
-0.188, 2.233e-2
-0.189, 2.237e-2
-0.190, 2.240e-2
-0.191, 2.244e-2
-0.192, 2.248e-2
-0.193, 2.252e-2
-0.194, 2.256e-2
-0.195, 2.260e-2
-0.196, 2.264e-2
-0.197, 2.268e-2
-0.198, 2.271e-2
-0.199, 2.275e-2
-0.200, 2.280e-2
-0.201, 2.284e-2
-0.202, 2.287e-2
-0.203, 2.291e-2
-0.204, 2.295e-2
-0.205, 2.299e-2
-0.206, 2.303e-2
-0.207, 2.307e-2
-0.208, 2.311e-2
-0.209, 2.315e-2
-0.210, 2.318e-2
-0.211, 2.322e-2
-0.212, 2.327e-2
-0.213, 2.331e-2
-0.214, 2.334e-2
-0.215, 2.338e-2
-0.216, 2.342e-2
-0.217, 2.346e-2
-0.218, 2.349e-2
-0.219, 2.354e-2
-0.220, 2.358e-2
-0.221, 2.362e-2
-0.222, 2.365e-2
-0.223, 2.369e-2
-0.224, 2.373e-2
-0.225, 2.377e-2
-0.226, 2.381e-2
-0.227, 2.385e-2
-0.228, 2.389e-2
-0.229, 2.392e-2
-0.230, 2.396e-2
-0.231, 2.400e-2
-0.232, 2.404e-2
-0.233, 2.409e-2
-0.234, 2.412e-2
-0.235, 2.416e-2
-0.236, 2.420e-2
-0.237, 2.424e-2
-0.238, 2.427e-2
-0.239, 2.432e-2
-0.240, 2.436e-2
-0.241, 2.439e-2
-0.242, 2.443e-2
-0.243, 2.447e-2
-0.244, 2.451e-2
-0.245, 2.455e-2
-0.246, 2.458e-2
-0.247, 2.462e-2
-0.248, 2.467e-2
-0.249, 2.470e-2
-0.250, 2.474e-2
-0.251, 2.478e-2
-0.252, 2.482e-2
-0.253, 2.485e-2
-0.254, 2.489e-2
-0.255, 2.493e-2
-0.256, 2.497e-2
-0.257, 2.501e-2
-0.258, 2.504e-2
-0.259, 2.509e-2
-0.260, 2.513e-2
-0.261, 2.516e-2
-0.262, 2.520e-2
-0.263, 2.524e-2
-0.264, 2.528e-2
-0.265, 2.532e-2
-0.266, 2.535e-2
-0.267, 2.539e-2
-0.268, 2.543e-2
-0.269, 2.547e-2
-0.270, 2.551e-2
-0.271, 2.555e-2
-0.272, 2.559e-2
-0.273, 2.562e-2
-0.274, 2.566e-2
-0.275, 2.570e-2
-0.276, 2.574e-2
-0.277, 2.578e-2
-0.278, 2.581e-2
-0.279, 2.585e-2
-0.280, 2.589e-2
-0.281, 2.593e-2
-0.282, 2.596e-2
-0.283, 2.600e-2
-0.284, 2.604e-2
-0.285, 2.608e-2
-0.286, 2.611e-2
-0.287, 2.615e-2
-0.288, 2.619e-2
-0.289, 2.623e-2
-0.290, 2.626e-2
-0.291, 2.630e-2
-0.292, 2.634e-2
-0.293, 2.638e-2
-0.294, 2.641e-2
-0.295, 2.646e-2
-0.296, 2.650e-2
-0.297, 2.653e-2
-0.298, 2.657e-2
-0.299, 2.660e-2
-0.300, 2.665e-2
-0.301, 2.669e-2
-0.302, 2.672e-2
-0.303, 2.676e-2
-0.304, 2.680e-2
-0.305, 2.684e-2
-0.306, 2.687e-2
-0.307, 2.691e-2
-0.308, 2.696e-2
-0.309, 2.699e-2
-0.310, 2.702e-2
-0.311, 2.706e-2
-0.312, 2.711e-2
-0.313, 2.714e-2
-0.314, 2.718e-2
-0.315, 2.722e-2
-0.316, 2.726e-2
-0.317, 2.729e-2
-0.318, 2.733e-2
-0.319, 2.737e-2
-0.320, 2.741e-2
-0.321, 2.745e-2
-0.322, 2.748e-2
-0.323, 2.752e-2
-0.324, 2.756e-2
-0.325, 2.759e-2
-0.326, 2.763e-2
-0.327, 2.767e-2
-0.328, 2.771e-2
-0.329, 2.775e-2
-0.330, 2.778e-2
-0.331, 2.782e-2
-0.332, 2.786e-2
-0.333, 2.789e-2
-0.334, 2.793e-2
-0.335, 2.797e-2
-0.336, 2.801e-2
-0.337, 2.806e-2
-0.338, 2.809e-2
-0.339, 2.813e-2
-0.340, 2.818e-2
-0.341, 2.821e-2
-0.342, 2.825e-2
-0.343, 2.829e-2
-0.344, 2.833e-2
-0.345, 2.837e-2
-0.346, 2.840e-2
-0.347, 2.844e-2
-0.348, 2.848e-2
-0.349, 2.852e-2
-0.350, 2.855e-2
-0.351, 2.859e-2
-0.352, 2.863e-2
-0.353, 2.866e-2
-0.354, 2.870e-2
-0.355, 2.874e-2
-0.356, 2.878e-2
-0.357, 2.881e-2
-0.358, 2.885e-2
-0.359, 2.889e-2
-0.360, 2.894e-2
-0.361, 2.897e-2
-0.362, 2.900e-2
-0.363, 2.904e-2
-0.364, 2.908e-2
-0.365, 2.912e-2
-0.366, 2.915e-2
-0.367, 2.920e-2
-0.368, 2.924e-2
-0.369, 2.927e-2
-0.370, 2.930e-2
-0.371, 2.935e-2
-0.372, 2.939e-2
-0.373, 2.942e-2
-0.374, 2.946e-2
-0.375, 2.950e-2
-0.376, 2.954e-2
-0.377, 2.958e-2
-0.378, 2.961e-2
-0.379, 2.965e-2
-0.380, 2.969e-2
-0.381, 2.973e-2
-0.382, 2.976e-2
-0.383, 2.980e-2
-0.384, 2.984e-2
-0.385, 2.988e-2
-0.386, 2.991e-2
-0.387, 2.995e-2
-0.388, 2.999e-2
-0.389, 3.002e-2
-0.390, 3.006e-2
-0.391, 3.010e-2
-0.392, 3.014e-2
-0.393, 3.018e-2
-0.394, 3.021e-2
-0.395, 3.025e-2
-0.396, 3.029e-2
-0.397, 3.033e-2
-0.398, 3.036e-2
-0.399, 3.040e-2
-0.400, 3.044e-2
-0.401, 3.048e-2
-0.402, 3.051e-2
-0.403, 3.055e-2
-0.404, 3.060e-2
-0.405, 3.063e-2
-0.406, 3.067e-2
-0.407, 3.071e-2
-0.408, 3.075e-2
-0.409, 3.078e-2
-0.410, 3.082e-2
-0.411, 3.087e-2
-0.412, 3.091e-2
-0.413, 3.094e-2
-0.414, 3.097e-2
-0.415, 3.102e-2
-0.416, 3.106e-2
-0.417, 3.110e-2
-0.418, 3.113e-2
-0.419, 3.117e-2
-0.420, 3.121e-2
-0.421, 3.125e-2
-0.422, 3.128e-2
-0.423, 3.132e-2
-0.424, 3.137e-2
-0.425, 3.140e-2
-0.426, 3.143e-2
-0.427, 3.148e-2
-0.428, 3.152e-2
-0.429, 3.156e-2
-0.430, 3.159e-2
-0.431, 3.163e-2
-0.432, 3.167e-2
-0.433, 3.171e-2
-0.434, 3.174e-2
-0.435, 3.179e-2
-0.436, 3.183e-2
-0.437, 3.187e-2
-0.438, 3.190e-2
-0.439, 3.194e-2
-0.440, 3.198e-2
-0.441, 3.202e-2
-0.442, 3.206e-2
-0.443, 3.210e-2
-0.444, 3.214e-2
-0.445, 3.218e-2
-0.446, 3.221e-2
-0.447, 3.225e-2
-0.448, 3.230e-2
-0.449, 3.234e-2
-0.450, 3.237e-2
-0.451, 3.241e-2
-0.452, 3.245e-2
-0.453, 3.249e-2
-0.454, 3.252e-2
-0.455, 3.256e-2
-0.456, 3.260e-2
-0.457, 3.264e-2
-0.458, 3.267e-2
-0.459, 3.272e-2
-0.460, 3.276e-2
-0.461, 3.280e-2
-0.462, 3.283e-2
-0.463, 3.287e-2
-0.464, 3.291e-2
-0.465, 3.295e-2
-0.466, 3.298e-2
-0.467, 3.303e-2
-0.468, 3.307e-2
-0.469, 3.311e-2
-0.470, 3.314e-2
-0.471, 3.319e-2
-0.472, 3.323e-2
-0.473, 3.327e-2
-0.474, 3.330e-2
-0.475, 3.335e-2
-0.476, 3.339e-2
-0.477, 3.342e-2
-0.478, 3.346e-2
-0.479, 3.350e-2
-0.480, 3.354e-2
-0.481, 3.358e-2
-0.482, 3.361e-2
-0.483, 3.365e-2
-0.484, 3.369e-2
-0.485, 3.373e-2
-0.486, 3.377e-2
-0.487, 3.381e-2
-0.488, 3.385e-2
-0.489, 3.389e-2
-0.490, 3.392e-2
-0.491, 3.396e-2
-0.492, 3.400e-2
-0.493, 3.404e-2
-0.494, 3.408e-2
-0.495, 3.412e-2
-0.496, 3.416e-2
-0.497, 3.420e-2
-0.498, 3.423e-2
-0.499, 3.427e-2
-0.500, 3.432e-2
-0.501, 3.435e-2
-0.502, 3.438e-2
-0.503, 3.443e-2
-0.504, 3.447e-2
-0.505, 3.451e-2
-0.506, 3.454e-2
-0.507, 3.459e-2
-0.508, 3.463e-2
-0.509, 3.466e-2
-0.510, 3.470e-2
-0.511, 3.474e-2
-0.512, 3.478e-2
-0.513, 3.482e-2
-0.514, 3.486e-2
-0.515, 3.490e-2
-0.516, 3.495e-2
-0.517, 3.498e-2
-0.518, 3.502e-2
-0.519, 3.506e-2
-0.520, 3.510e-2
-0.521, 3.514e-2
-0.522, 3.516e-2
-0.523, 3.520e-2
-0.524, 3.524e-2
-0.525, 3.527e-2
-0.526, 3.531e-2
-0.527, 3.535e-2
-0.528, 3.540e-2
-0.529, 3.544e-2
-0.530, 3.547e-2
-0.531, 3.551e-2
-0.532, 3.556e-2
-0.533, 3.559e-2
-0.534, 3.563e-2
-0.535, 3.568e-2
-0.536, 3.572e-2
-0.537, 3.576e-2
-0.538, 3.579e-2
-0.539, 3.583e-2
-0.540, 3.587e-2
-0.541, 3.591e-2
-0.542, 3.595e-2
-0.543, 3.599e-2
-0.544, 3.603e-2
-0.545, 3.607e-2
-0.546, 3.611e-2
-0.547, 3.616e-2
-0.548, 3.620e-2
-0.549, 3.624e-2
-0.550, 3.627e-2
-0.551, 3.631e-2
-0.552, 3.636e-2
-0.553, 3.640e-2
-0.554, 3.644e-2
-0.555, 3.648e-2
-0.556, 3.653e-2
-0.557, 3.657e-2
-0.558, 3.661e-2
-0.559, 3.665e-2
-0.560, 3.669e-2
-0.561, 3.673e-2
-0.562, 3.677e-2
-0.563, 3.681e-2
-0.564, 3.686e-2
-0.565, 3.690e-2
-0.566, 3.693e-2
-0.567, 3.697e-2
-0.568, 3.702e-2
-0.569, 3.705e-2
-0.570, 3.708e-2
-0.571, 3.713e-2
-0.572, 3.718e-2
-0.573, 3.721e-2
-0.574, 3.725e-2
-0.575, 3.729e-2
-0.576, 3.734e-2
-0.577, 3.738e-2
-0.578, 3.741e-2
-0.579, 3.746e-2
-0.580, 3.750e-2
-0.581, 3.753e-2
-0.582, 3.757e-2
-0.583, 3.761e-2
-0.584, 3.766e-2
-0.585, 3.769e-2
-0.586, 3.773e-2
-0.587, 3.777e-2
-0.588, 3.781e-2
-0.589, 3.785e-2
-0.590, 3.789e-2
-0.591, 3.793e-2
-0.592, 3.798e-2
-0.593, 3.801e-2
-0.594, 3.804e-2
-0.595, 3.809e-2
-0.596, 3.813e-2
-0.597, 3.817e-2
-0.598, 3.821e-2
-0.599, 3.825e-2
-0.600, 3.830e-2
-0.601, 3.833e-2
-0.602, 3.837e-2
-0.603, 3.841e-2
-0.604, 3.845e-2
-0.605, 3.849e-2
-0.606, 3.853e-2
-0.607, 3.858e-2
-0.608, 3.862e-2
-0.609, 3.865e-2
-0.610, 3.869e-2
-0.611, 3.874e-2
-0.612, 3.878e-2
-0.613, 3.882e-2
-0.614, 3.886e-2
-0.615, 3.889e-2
-0.616, 3.894e-2
-0.617, 3.898e-2
-0.618, 3.903e-2
-0.619, 3.907e-2
-0.620, 3.912e-2
-0.621, 3.916e-2
-0.622, 3.920e-2
-0.623, 3.926e-2
-0.624, 3.931e-2
-0.625, 3.934e-2
-0.626, 3.938e-2
-0.627, 3.942e-2
-0.628, 3.947e-2
-0.629, 3.950e-2
-0.630, 3.955e-2
-0.631, 3.959e-2
-0.632, 3.964e-2
-0.633, 3.968e-2
-0.634, 3.973e-2
-0.635, 3.978e-2
-0.636, 3.982e-2
-0.637, 3.986e-2
-0.638, 3.990e-2
-0.639, 3.995e-2
-0.640, 4.000e-2
-0.641, 4.004e-2
-0.642, 4.007e-2
-0.643, 4.011e-2
-0.644, 4.015e-2
-0.645, 4.019e-2
-0.646, 4.024e-2
-0.647, 4.029e-2
-0.648, 4.033e-2
-0.649, 4.037e-2
-0.650, 4.040e-2
-0.651, 4.045e-2
-0.652, 4.050e-2
-0.653, 4.053e-2
-0.654, 4.057e-2
-0.655, 4.061e-2
-0.656, 4.065e-2
-0.657, 4.069e-2
-0.658, 4.073e-2
-0.659, 4.078e-2
-0.660, 4.081e-2
-0.661, 4.085e-2
-0.662, 4.089e-2
-0.663, 4.094e-2
-0.664, 4.100e-2
-0.665, 4.103e-2
-0.666, 4.107e-2
-0.667, 4.112e-2
-0.668, 4.117e-2
-0.669, 4.121e-2
-0.670, 4.125e-2
-0.671, 4.129e-2
-0.672, 4.133e-2
-0.673, 4.137e-2
-0.674, 4.141e-2
-0.675, 4.145e-2
-0.676, 4.150e-2
-0.677, 4.154e-2
-0.678, 4.157e-2
-0.679, 4.162e-2
-0.680, 4.167e-2
-0.681, 4.171e-2
-0.682, 4.175e-2
-0.683, 4.180e-2
-0.684, 4.185e-2
-0.685, 4.189e-2
-0.686, 4.193e-2
-0.687, 4.198e-2
-0.688, 4.202e-2
-0.689, 4.206e-2
-0.690, 4.209e-2
-0.691, 4.213e-2
-0.692, 4.219e-2
-0.693, 4.223e-2
-0.694, 4.227e-2
-0.695, 4.232e-2
-0.696, 4.238e-2
-0.697, 4.243e-2
-0.698, 4.247e-2
-0.699, 4.251e-2
-0.700, 4.255e-2
-0.701, 4.258e-2
-0.702, 4.262e-2
-0.703, 4.266e-2
-0.704, 4.273e-2
-0.705, 4.277e-2
-0.706, 4.280e-2
-0.707, 4.284e-2
-0.708, 4.289e-2
-0.709, 4.293e-2
-0.710, 4.296e-2
-0.711, 4.299e-2
-0.712, 4.303e-2
-0.713, 4.308e-2
-0.714, 4.313e-2
-0.715, 4.319e-2
-0.716, 4.325e-2
-0.717, 4.328e-2
-0.718, 4.332e-2
-0.719, 4.337e-2
-0.720, 4.342e-2
-0.721, 4.346e-2
-0.722, 4.350e-2
-0.723, 4.354e-2
-0.724, 4.358e-2
-0.725, 4.362e-2
-0.726, 4.366e-2
-0.727, 4.370e-2
-0.728, 4.375e-2
-0.729, 4.377e-2
-0.730, 4.383e-2
-0.731, 4.388e-2
-0.732, 4.395e-2
-0.733, 4.399e-2
-0.734, 4.404e-2
-0.735, 4.410e-2
-0.736, 4.414e-2
-0.737, 4.419e-2
-0.738, 4.422e-2
-0.739, 4.428e-2
-0.740, 4.433e-2
-0.741, 4.438e-2
-0.742, 4.442e-2
-0.743, 4.447e-2
-0.744, 4.452e-2
-0.745, 4.456e-2
-0.746, 4.461e-2
-0.747, 4.466e-2
-0.748, 4.471e-2
-0.749, 4.475e-2
-0.750, 4.479e-2
-0.751, 4.484e-2
-0.752, 4.489e-2
-0.753, 4.493e-2
-0.754, 4.499e-2
-0.755, 4.506e-2
-0.756, 4.510e-2
-0.757, 4.515e-2
-0.758, 4.519e-2
-0.759, 4.524e-2
-0.760, 4.529e-2
-0.761, 4.533e-2
-0.762, 4.536e-2
-0.763, 4.541e-2
-0.764, 4.547e-2
-0.765, 4.551e-2
-0.766, 4.555e-2
-0.767, 4.560e-2
-0.768, 4.564e-2
-0.769, 4.568e-2
-0.770, 4.572e-2
-0.771, 4.578e-2
-0.772, 4.583e-2
-0.773, 4.586e-2
-0.774, 4.591e-2
-0.775, 4.596e-2
-0.776, 4.600e-2
-0.777, 4.605e-2
-0.778, 4.608e-2
-0.779, 4.614e-2
-0.780, 4.619e-2
-0.781, 4.624e-2
-0.782, 4.628e-2
-0.783, 4.632e-2
-0.784, 4.636e-2
-0.785, 4.641e-2
-0.786, 4.646e-2
-0.787, 4.651e-2
-0.788, 4.657e-2
-0.789, 4.662e-2
-0.790, 4.669e-2
-0.791, 4.675e-2
-0.792, 4.680e-2
-0.793, 4.685e-2
-0.794, 4.689e-2
-0.795, 4.695e-2
-0.796, 4.700e-2
-0.797, 4.706e-2
-0.798, 4.712e-2
-0.799, 4.718e-2
