Apr. 28, 2026   12:04:04
Cyclic Voltammetry
File: c:\users\administrator\desktop\2026.4.28\hi 2mol h2so4\0.005\run unsaved.txt
Data Source:  Experiment
Instrument Model:  CHI600E
Header: 
Note: 

Init E (V) = 0
High E (V) = 0.8
Low E (V) = -0.8
Init P/N = N
Scan Rate (V/s) = 0.005
Segment = 3
Sample Interval (V) = 0.001
Quiet Time (sec) = 2
Sensitivity (A/V) = 0.1

Segment 1:

Segment 2:

Segment 3:

Potential/V, Current/A

0.000, -2.595e-2
-0.001, -2.310e-2
-0.002, -2.132e-2
-0.003, -1.997e-2
-0.004, -1.889e-2
-0.005, -1.797e-2
-0.006, -1.718e-2
-0.007, -1.647e-2
-0.008, -1.583e-2
-0.009, -1.524e-2
-0.010, -1.469e-2
-0.011, -1.420e-2
-0.012, -1.374e-2
-0.013, -1.308e-2
-0.014, -1.267e-2
-0.015, -1.230e-2
-0.016, -1.194e-2
-0.017, -1.160e-2
-0.018, -1.127e-2
-0.019, -1.097e-2
-0.020, -1.067e-2
-0.021, -1.039e-2
-0.022, -1.012e-2
-0.023, -9.867e-3
-0.024, -9.618e-3
-0.025, -9.379e-3
-0.026, -9.149e-3
-0.027, -8.928e-3
-0.028, -8.713e-3
-0.029, -8.507e-3
-0.030, -8.308e-3
-0.031, -8.115e-3
-0.032, -7.928e-3
-0.033, -7.747e-3
-0.034, -7.569e-3
-0.035, -7.397e-3
-0.036, -7.231e-3
-0.037, -7.072e-3
-0.038, -6.912e-3
-0.039, -6.759e-3
-0.040, -6.611e-3
-0.041, -6.467e-3
-0.042, -6.326e-3
-0.043, -6.188e-3
-0.044, -6.053e-3
-0.045, -5.921e-3
-0.046, -5.795e-3
-0.047, -5.669e-3
-0.048, -5.547e-3
-0.049, -5.427e-3
-0.050, -5.310e-3
-0.051, -5.197e-3
-0.052, -5.086e-3
-0.053, -4.979e-3
-0.054, -4.872e-3
-0.055, -4.767e-3
-0.056, -4.666e-3
-0.057, -4.565e-3
-0.058, -4.470e-3
-0.059, -4.375e-3
-0.060, -4.279e-3
-0.061, -4.187e-3
-0.062, -4.095e-3
-0.063, -4.009e-3
-0.064, -3.920e-3
-0.065, -3.835e-3
-0.066, -3.752e-3
-0.067, -3.669e-3
-0.068, -3.589e-3
-0.069, -3.509e-3
-0.070, -3.433e-3
-0.071, -3.356e-3
-0.072, -3.282e-3
-0.073, -3.209e-3
-0.074, -3.135e-3
-0.075, -3.064e-3
-0.076, -2.994e-3
-0.077, -2.926e-3
-0.078, -2.859e-3
-0.079, -2.791e-3
-0.080, -2.727e-3
-0.081, -2.663e-3
-0.082, -2.598e-3
-0.083, -2.537e-3
-0.084, -2.475e-3
-0.085, -2.417e-3
-0.086, -2.356e-3
-0.087, -2.297e-3
-0.088, -2.239e-3
-0.089, -2.184e-3
-0.090, -2.129e-3
-0.091, -2.073e-3
-0.092, -2.018e-3
-0.093, -1.966e-3
-0.094, -1.917e-3
-0.095, -1.865e-3
-0.096, -1.816e-3
-0.097, -1.764e-3
-0.098, -1.714e-3
-0.099, -1.668e-3
-0.100, -1.619e-3
-0.101, -1.573e-3
-0.102, -1.524e-3
-0.103, -1.478e-3
-0.104, -1.435e-3
-0.105, -1.389e-3
-0.106, -1.344e-3
-0.107, -1.301e-3
-0.108, -1.258e-3
-0.109, -1.216e-3
-0.110, -1.174e-3
-0.111, -1.134e-3
-0.112, -1.094e-3
-0.113, -1.054e-3
-0.114, -1.015e-3
-0.115, -9.762e-4
-0.116, -9.376e-4
-0.117, -9.004e-4
-0.118, -8.627e-4
-0.119, -8.262e-4
-0.120, -7.906e-4
-0.121, -7.538e-4
-0.122, -7.182e-4
-0.123, -6.835e-4
-0.124, -6.485e-4
-0.125, -6.151e-4
-0.126, -5.814e-4
-0.127, -5.482e-4
-0.128, -5.157e-4
-0.129, -4.829e-4
-0.130, -4.513e-4
-0.131, -4.194e-4
-0.132, -3.884e-4
-0.133, -3.580e-4
-0.134, -3.273e-4
-0.135, -2.966e-4
-0.136, -2.678e-4
-0.137, -2.380e-4
-0.138, -2.095e-4
-0.139, -1.810e-4
-0.140, -1.527e-4
-0.141, -1.254e-4
-0.142, -9.655e-5
-0.143, -6.989e-5
-0.144, -4.353e-5
-0.145, -1.629e-5
-0.146, 9.395e-6
-0.147, 3.575e-5
-0.148, 6.177e-5
-0.149, 8.653e-5
-0.150, 1.118e-4
-0.151, 1.367e-4
-0.152, 1.606e-4
-0.153, 1.854e-4
-0.154, 2.096e-4
-0.155, 2.330e-4
-0.156, 2.567e-4
-0.157, 2.792e-4
-0.158, 3.023e-4
-0.159, 3.256e-4
-0.160, 3.474e-4
-0.161, 3.701e-4
-0.162, 3.913e-4
-0.163, 4.130e-4
-0.164, 4.345e-4
-0.165, 4.548e-4
-0.166, 4.762e-4
-0.167, 4.971e-4
-0.168, 5.167e-4
-0.169, 5.370e-4
-0.170, 5.566e-4
-0.171, 5.760e-4
-0.172, 5.959e-4
-0.173, 6.155e-4
-0.174, 6.352e-4
-0.175, 6.533e-4
-0.176, 6.720e-4
-0.177, 6.916e-4
-0.178, 7.097e-4
-0.179, 7.278e-4
-0.180, 7.459e-4
-0.181, 7.628e-4
-0.182, 7.809e-4
-0.183, 7.984e-4
-0.184, 8.153e-4
-0.185, 8.331e-4
-0.186, 8.503e-4
-0.187, 8.665e-4
-0.188, 8.834e-4
-0.189, 8.993e-4
-0.190, 9.156e-4
-0.191, 9.316e-4
-0.192, 9.472e-4
-0.193, 9.638e-4
-0.194, 9.788e-4
-0.195, 9.942e-4
-0.196, 1.010e-3
-0.197, 1.025e-3
-0.198, 1.040e-3
-0.199, 1.055e-3
-0.200, 1.069e-3
-0.201, 1.084e-3
-0.202, 1.098e-3
-0.203, 1.112e-3
-0.204, 1.127e-3
-0.205, 1.141e-3
-0.206, 1.155e-3
-0.207, 1.169e-3
-0.208, 1.182e-3
-0.209, 1.196e-3
-0.210, 1.209e-3
-0.211, 1.222e-3
-0.212, 1.236e-3
-0.213, 1.248e-3
-0.214, 1.261e-3
-0.215, 1.274e-3
-0.216, 1.286e-3
-0.217, 1.299e-3
-0.218, 1.311e-3
-0.219, 1.324e-3
-0.220, 1.337e-3
-0.221, 1.348e-3
-0.222, 1.360e-3
-0.223, 1.372e-3
-0.224, 1.384e-3
-0.225, 1.395e-3
-0.226, 1.407e-3
-0.227, 1.418e-3
-0.228, 1.430e-3
-0.229, 1.440e-3
-0.230, 1.452e-3
-0.231, 1.463e-3
-0.232, 1.474e-3
-0.233, 1.485e-3
-0.234, 1.495e-3
-0.235, 1.506e-3
-0.236, 1.517e-3
-0.237, 1.528e-3
-0.238, 1.538e-3
-0.239, 1.549e-3
-0.240, 1.558e-3
-0.241, 1.569e-3
-0.242, 1.578e-3
-0.243, 1.588e-3
-0.244, 1.599e-3
-0.245, 1.608e-3
-0.246, 1.618e-3
-0.247, 1.628e-3
-0.248, 1.637e-3
-0.249, 1.647e-3
-0.250, 1.657e-3
-0.251, 1.666e-3
-0.252, 1.676e-3
-0.253, 1.684e-3
-0.254, 1.694e-3
-0.255, 1.703e-3
-0.256, 1.712e-3
-0.257, 1.722e-3
-0.258, 1.730e-3
-0.259, 1.739e-3
-0.260, 1.748e-3
-0.261, 1.756e-3
-0.262, 1.766e-3
-0.263, 1.774e-3
-0.264, 1.782e-3
-0.265, 1.791e-3
-0.266, 1.800e-3
-0.267, 1.807e-3
-0.268, 1.816e-3
-0.269, 1.824e-3
-0.270, 1.833e-3
-0.271, 1.841e-3
-0.272, 1.848e-3
-0.273, 1.857e-3
-0.274, 1.865e-3
-0.275, 1.873e-3
-0.276, 1.881e-3
-0.277, 1.888e-3
-0.278, 1.896e-3
-0.279, 1.904e-3
-0.280, 1.911e-3
-0.281, 1.920e-3
-0.282, 1.927e-3
-0.283, 1.935e-3
-0.284, 1.943e-3
-0.285, 1.950e-3
-0.286, 1.957e-3
-0.287, 1.965e-3
-0.288, 1.972e-3
-0.289, 1.980e-3
-0.290, 1.987e-3
-0.291, 1.994e-3
-0.292, 2.001e-3
-0.293, 2.008e-3
-0.294, 2.015e-3
-0.295, 2.022e-3
-0.296, 2.029e-3
-0.297, 2.036e-3
-0.298, 2.043e-3
-0.299, 2.050e-3
-0.300, 2.058e-3
-0.301, 2.064e-3
-0.302, 2.071e-3
-0.303, 2.078e-3
-0.304, 2.084e-3
-0.305, 2.092e-3
-0.306, 2.098e-3
-0.307, 2.106e-3
-0.308, 2.113e-3
-0.309, 2.119e-3
-0.310, 2.126e-3
-0.311, 2.132e-3
-0.312, 2.138e-3
-0.313, 2.145e-3
-0.314, 2.152e-3
-0.315, 2.159e-3
-0.316, 2.167e-3
-0.317, 2.173e-3
-0.318, 2.179e-3
-0.319, 2.186e-3
-0.320, 2.192e-3
-0.321, 2.198e-3
-0.322, 2.204e-3
-0.323, 2.210e-3
-0.324, 2.217e-3
-0.325, 2.223e-3
-0.326, 2.230e-3
-0.327, 2.236e-3
-0.328, 2.242e-3
-0.329, 2.248e-3
-0.330, 2.254e-3
-0.331, 2.260e-3
-0.332, 2.267e-3
-0.333, 2.272e-3
-0.334, 2.278e-3
-0.335, 2.285e-3
-0.336, 2.290e-3
-0.337, 2.297e-3
-0.338, 2.302e-3
-0.339, 2.309e-3
-0.340, 2.315e-3
-0.341, 2.321e-3
-0.342, 2.326e-3
-0.343, 2.332e-3
-0.344, 2.337e-3
-0.345, 2.343e-3
-0.346, 2.349e-3
-0.347, 2.356e-3
-0.348, 2.363e-3
-0.349, 2.368e-3
-0.350, 2.375e-3
-0.351, 2.380e-3
-0.352, 2.386e-3
-0.353, 2.393e-3
-0.354, 2.398e-3
-0.355, 2.404e-3
-0.356, 2.410e-3
-0.357, 2.414e-3
-0.358, 2.421e-3
-0.359, 2.427e-3
-0.360, 2.432e-3
-0.361, 2.438e-3
-0.362, 2.443e-3
-0.363, 2.449e-3
-0.364, 2.455e-3
-0.365, 2.461e-3
-0.366, 2.466e-3
-0.367, 2.471e-3
-0.368, 2.477e-3
-0.369, 2.482e-3
-0.370, 2.488e-3
-0.371, 2.493e-3
-0.372, 2.500e-3
-0.373, 2.505e-3
-0.374, 2.511e-3
-0.375, 2.518e-3
-0.376, 2.523e-3
-0.377, 2.529e-3
-0.378, 2.534e-3
-0.379, 2.540e-3
-0.380, 2.547e-3
-0.381, 2.552e-3
-0.382, 2.558e-3
-0.383, 2.565e-3
-0.384, 2.570e-3
-0.385, 2.578e-3
-0.386, 2.583e-3
-0.387, 2.589e-3
-0.388, 2.595e-3
-0.389, 2.600e-3
-0.390, 2.606e-3
-0.391, 2.612e-3
-0.392, 2.616e-3
-0.393, 2.622e-3
-0.394, 2.627e-3
-0.395, 2.632e-3
-0.396, 2.637e-3
-0.397, 2.643e-3
-0.398, 2.648e-3
-0.399, 2.655e-3
-0.400, 2.661e-3
-0.401, 2.669e-3
-0.402, 2.673e-3
-0.403, 2.678e-3
-0.404, 2.684e-3
-0.405, 2.689e-3
-0.406, 2.694e-3
-0.407, 2.699e-3
-0.408, 2.704e-3
-0.409, 2.710e-3
-0.410, 2.716e-3
-0.411, 2.721e-3
-0.412, 2.727e-3
-0.413, 2.731e-3
-0.414, 2.739e-3
-0.415, 2.747e-3
-0.416, 2.754e-3
-0.417, 2.759e-3
-0.418, 2.764e-3
-0.419, 2.768e-3
-0.420, 2.773e-3
-0.421, 2.776e-3
-0.422, 2.783e-3
-0.423, 2.787e-3
-0.424, 2.790e-3
-0.425, 2.799e-3
-0.426, 2.805e-3
-0.427, 2.810e-3
-0.428, 2.814e-3
-0.429, 2.820e-3
-0.430, 2.828e-3
-0.431, 2.838e-3
-0.432, 2.842e-3
-0.433, 2.847e-3
-0.434, 2.852e-3
-0.435, 2.858e-3
-0.436, 2.865e-3
-0.437, 2.868e-3
-0.438, 2.873e-3
-0.439, 2.879e-3
-0.440, 2.888e-3
-0.441, 2.892e-3
-0.442, 2.898e-3
-0.443, 2.901e-3
-0.444, 2.907e-3
-0.445, 2.916e-3
-0.446, 2.920e-3
-0.447, 2.924e-3
-0.448, 2.934e-3
-0.449, 2.939e-3
-0.450, 2.945e-3
-0.451, 2.950e-3
-0.452, 2.956e-3
-0.453, 2.960e-3
-0.454, 2.966e-3
-0.455, 2.969e-3
-0.456, 2.977e-3
-0.457, 2.984e-3
-0.458, 2.990e-3
-0.459, 2.997e-3
-0.460, 3.004e-3
-0.461, 3.007e-3
-0.462, 3.012e-3
-0.463, 3.017e-3
-0.464, 3.011e-3
-0.465, 3.023e-3
-0.466, 3.032e-3
-0.467, 3.038e-3
-0.468, 3.038e-3
-0.469, 3.041e-3
-0.470, 3.044e-3
-0.471, 3.050e-3
-0.472, 3.060e-3
-0.473, 3.066e-3
-0.474, 3.069e-3
-0.475, 3.072e-3
-0.476, 3.075e-3
-0.477, 3.087e-3
-0.478, 3.093e-3
-0.479, 3.099e-3
-0.480, 3.099e-3
-0.481, 3.103e-3
-0.482, 3.109e-3
-0.483, 3.112e-3
-0.484, 3.118e-3
-0.485, 3.121e-3
-0.486, 3.136e-3
-0.487, 3.161e-3
-0.488, 3.167e-3
-0.489, 3.170e-3
-0.490, 3.176e-3
-0.491, 3.179e-3
-0.492, 3.185e-3
-0.493, 3.188e-3
-0.494, 3.192e-3
-0.495, 3.201e-3
-0.496, 3.219e-3
-0.497, 3.222e-3
-0.498, 3.222e-3
-0.499, 3.222e-3
-0.500, 3.231e-3
-0.501, 3.244e-3
-0.502, 3.250e-3
-0.503, 3.253e-3
-0.504, 3.250e-3
-0.505, 3.253e-3
-0.506, 3.259e-3
-0.507, 3.265e-3
-0.508, 3.265e-3
-0.509, 3.265e-3
-0.510, 3.268e-3
-0.511, 3.299e-3
-0.512, 3.308e-3
-0.513, 3.308e-3
-0.514, 3.311e-3
-0.515, 3.314e-3
-0.516, 3.311e-3
-0.517, 3.317e-3
-0.518, 3.345e-3
-0.519, 3.345e-3
-0.520, 3.345e-3
-0.521, 3.348e-3
-0.522, 3.360e-3
-0.523, 3.363e-3
-0.524, 3.394e-3
-0.525, 3.391e-3
-0.526, 3.397e-3
-0.527, 3.403e-3
-0.528, 3.400e-3
-0.529, 3.400e-3
-0.530, 3.416e-3
-0.531, 3.431e-3
-0.532, 3.425e-3
-0.533, 3.434e-3
-0.534, 3.437e-3
-0.535, 3.440e-3
-0.536, 3.443e-3
-0.537, 3.471e-3
-0.538, 3.471e-3
-0.539, 3.468e-3
-0.540, 3.471e-3
-0.541, 3.477e-3
-0.542, 3.498e-3
-0.543, 3.508e-3
-0.544, 3.501e-3
-0.545, 3.508e-3
-0.546, 3.504e-3
-0.547, 3.523e-3
-0.548, 3.538e-3
-0.549, 3.535e-3
-0.550, 3.544e-3
-0.551, 3.538e-3
-0.552, 3.544e-3
-0.553, 3.581e-3
-0.554, 3.578e-3
-0.555, 3.578e-3
-0.556, 3.584e-3
-0.557, 3.587e-3
-0.558, 3.587e-3
-0.559, 3.606e-3
-0.560, 3.633e-3
-0.561, 3.633e-3
-0.562, 3.630e-3
-0.563, 3.630e-3
-0.564, 3.630e-3
-0.565, 3.630e-3
-0.566, 3.643e-3
-0.567, 3.643e-3
-0.568, 3.646e-3
-0.569, 3.682e-3
-0.570, 3.695e-3
-0.571, 3.689e-3
-0.572, 3.836e-3
-0.573, 3.882e-3
-0.574, 3.922e-3
-0.575, 3.956e-3
-0.576, 3.962e-3
-0.577, 3.971e-3
-0.578, 4.005e-3
-0.579, 4.084e-3
-0.580, 4.072e-3
-0.581, 4.066e-3
-0.582, 4.072e-3
-0.583, 4.069e-3
-0.584, 4.075e-3
-0.585, 4.081e-3
-0.586, 4.084e-3
-0.587, 4.091e-3
-0.588, 4.091e-3
-0.589, 4.130e-3
-0.590, 4.146e-3
-0.591, 4.146e-3
-0.592, 4.164e-3
-0.593, 4.192e-3
-0.594, 4.186e-3
-0.595, 4.198e-3
-0.596, 4.210e-3
-0.597, 4.204e-3
-0.598, 4.207e-3
-0.599, 4.219e-3
-0.600, 4.235e-3
-0.601, 4.241e-3
-0.602, 4.244e-3
-0.603, 4.256e-3
-0.604, 4.259e-3
-0.605, 4.265e-3
-0.606, 4.268e-3
-0.607, 4.265e-3
-0.608, 4.272e-3
-0.609, 4.287e-3
-0.610, 4.318e-3
-0.611, 4.324e-3
-0.612, 4.330e-3
-0.613, 4.336e-3
-0.614, 4.354e-3
-0.615, 4.361e-3
-0.616, 4.379e-3
-0.617, 4.382e-3
-0.618, 4.379e-3
-0.619, 4.388e-3
-0.620, 4.391e-3
-0.621, 4.403e-3
-0.622, 4.416e-3
-0.623, 4.425e-3
-0.624, 4.422e-3
-0.625, 4.446e-3
-0.626, 4.480e-3
-0.627, 4.477e-3
-0.628, 4.483e-3
-0.629, 4.483e-3
-0.630, 4.499e-3
-0.631, 4.492e-3
-0.632, 4.483e-3
-0.633, 4.496e-3
-0.634, 4.523e-3
-0.635, 4.532e-3
-0.636, 4.545e-3
-0.637, 4.551e-3
-0.638, 4.572e-3
-0.639, 4.581e-3
-0.640, 4.584e-3
-0.641, 4.578e-3
-0.642, 4.588e-3
-0.643, 4.621e-3
-0.644, 4.606e-3
-0.645, 4.606e-3
-0.646, 4.655e-3
-0.647, 4.637e-3
-0.648, 4.643e-3
-0.649, 4.713e-3
-0.650, 4.713e-3
-0.651, 4.704e-3
-0.652, 4.732e-3
-0.653, 4.775e-3
-0.654, 4.735e-3
-0.655, 4.753e-3
-0.656, 4.759e-3
-0.657, 4.793e-3
-0.658, 4.769e-3
-0.659, 4.781e-3
-0.660, 4.808e-3
-0.661, 4.812e-3
-0.662, 4.818e-3
-0.663, 4.839e-3
-0.664, 4.879e-3
-0.665, 4.854e-3
-0.666, 4.888e-3
-0.667, 4.879e-3
-0.668, 4.870e-3
-0.669, 4.888e-3
-0.670, 4.904e-3
-0.671, 4.931e-3
-0.672, 4.959e-3
-0.673, 4.943e-3
-0.674, 4.971e-3
-0.675, 5.014e-3
-0.676, 5.042e-3
-0.677, 5.048e-3
-0.678, 5.091e-3
-0.679, 5.091e-3
-0.680, 5.097e-3
-0.681, 5.112e-3
-0.682, 5.131e-3
-0.683, 5.155e-3
-0.684, 5.171e-3
-0.685, 5.177e-3
-0.686, 5.186e-3
-0.687, 5.140e-3
-0.688, 5.171e-3
-0.689, 5.229e-3
-0.690, 5.220e-3
-0.691, 5.232e-3
-0.692, 5.247e-3
-0.693, 5.275e-3
-0.694, 5.284e-3
-0.695, 5.302e-3
-0.696, 5.345e-3
-0.697, 5.398e-3
-0.698, 5.379e-3
-0.699, 5.388e-3
-0.700, 5.398e-3
-0.701, 5.434e-3
-0.702, 5.465e-3
-0.703, 5.548e-3
-0.704, 5.496e-3
-0.705, 5.490e-3
-0.706, 5.536e-3
-0.707, 5.572e-3
-0.708, 5.622e-3
-0.709, 5.631e-3
-0.710, 5.628e-3
-0.711, 5.652e-3
-0.712, 5.661e-3
-0.713, 5.726e-3
-0.714, 5.763e-3
-0.715, 5.757e-3
-0.716, 5.809e-3
-0.717, 5.846e-3
-0.718, 5.858e-3
-0.719, 5.861e-3
-0.720, 5.904e-3
-0.721, 5.931e-3
-0.722, 5.990e-3
-0.723, 5.987e-3
-0.724, 5.977e-3
-0.725, 6.005e-3
-0.726, 6.023e-3
-0.727, 6.119e-3
-0.728, 6.125e-3
-0.729, 6.091e-3
-0.730, 6.162e-3
-0.731, 6.177e-3
-0.732, 6.223e-3
-0.733, 6.260e-3
-0.734, 6.269e-3
-0.735, 6.505e-3
-0.736, 6.603e-3
-0.737, 6.606e-3
-0.738, 6.567e-3
-0.739, 6.649e-3
-0.740, 6.628e-3
-0.741, 6.711e-3
-0.742, 6.763e-3
-0.743, 6.809e-3
-0.744, 6.787e-3
-0.745, 6.910e-3
-0.746, 6.898e-3
-0.747, 6.926e-3
-0.748, 6.990e-3
-0.749, 7.008e-3
-0.750, 7.061e-3
-0.751, 7.103e-3
-0.752, 7.122e-3
-0.753, 7.097e-3
-0.754, 7.183e-3
-0.755, 7.260e-3
-0.756, 7.291e-3
-0.757, 7.309e-3
-0.758, 7.331e-3
-0.759, 7.377e-3
-0.760, 7.380e-3
-0.761, 7.478e-3
-0.762, 7.512e-3
-0.763, 7.558e-3
-0.764, 7.610e-3
-0.765, 7.637e-3
-0.766, 7.760e-3
-0.767, 7.828e-3
-0.768, 7.834e-3
-0.769, 7.886e-3
-0.770, 7.910e-3
-0.771, 7.950e-3
-0.772, 8.024e-3
-0.773, 8.024e-3
-0.774, 8.039e-3
-0.775, 8.088e-3
-0.776, 8.131e-3
-0.777, 8.180e-3
-0.778, 8.183e-3
-0.779, 8.300e-3
-0.780, 8.340e-3
-0.781, 8.364e-3
-0.782, 8.450e-3
-0.783, 8.524e-3
-0.784, 8.530e-3
-0.785, 8.579e-3
-0.786, 8.687e-3
-0.787, 8.705e-3
-0.788, 8.773e-3
-0.789, 8.825e-3
-0.790, 8.877e-3
-0.791, 8.889e-3
-0.792, 8.917e-3
-0.793, 9.015e-3
-0.794, 9.948e-3
-0.795, 1.005e-2
-0.796, 1.007e-2
-0.797, 1.005e-2
-0.798, 1.008e-2
-0.799, 1.008e-2
-0.800, 1.007e-2
-0.799, 9.791e-3
-0.798, 9.635e-3
-0.797, 9.533e-3
-0.796, 9.432e-3
-0.795, 9.383e-3
-0.794, 9.239e-3
-0.793, 9.162e-3
-0.792, 9.021e-3
-0.791, 8.917e-3
-0.790, 8.748e-3
-0.789, 8.631e-3
-0.788, 8.539e-3
-0.787, 8.364e-3
-0.786, 8.236e-3
-0.785, 8.567e-3
-0.784, 8.481e-3
-0.783, 8.340e-3
-0.782, 8.217e-3
-0.781, 8.104e-3
-0.780, 8.030e-3
-0.779, 7.910e-3
-0.778, 7.846e-3
-0.777, 7.723e-3
-0.776, 7.656e-3
-0.775, 7.527e-3
-0.774, 7.441e-3
-0.773, 7.364e-3
-0.772, 7.248e-3
-0.771, 7.186e-3
-0.770, 7.122e-3
-0.769, 7.051e-3
-0.768, 6.947e-3
-0.767, 6.870e-3
-0.766, 6.757e-3
-0.765, 6.714e-3
-0.764, 6.606e-3
-0.763, 6.524e-3
-0.762, 6.462e-3
-0.761, 6.389e-3
-0.760, 6.269e-3
-0.759, 6.220e-3
-0.758, 6.109e-3
-0.757, 6.011e-3
-0.756, 5.959e-3
-0.755, 5.864e-3
-0.754, 5.787e-3
-0.753, 5.720e-3
-0.752, 5.655e-3
-0.751, 5.557e-3
-0.750, 5.447e-3
-0.749, 5.508e-3
-0.748, 5.419e-3
-0.747, 5.348e-3
-0.746, 5.238e-3
-0.745, 5.167e-3
-0.744, 5.115e-3
-0.743, 5.023e-3
-0.742, 4.983e-3
-0.741, 4.943e-3
-0.740, 4.925e-3
-0.739, 4.867e-3
-0.738, 4.741e-3
-0.737, 4.723e-3
-0.736, 4.747e-3
-0.735, 4.726e-3
-0.734, 4.652e-3
-0.733, 4.575e-3
-0.732, 4.486e-3
-0.731, 4.453e-3
-0.730, 4.453e-3
-0.729, 4.348e-3
-0.728, 4.364e-3
-0.727, 4.293e-3
-0.726, 4.219e-3
-0.725, 4.143e-3
-0.724, 4.146e-3
-0.723, 4.008e-3
-0.722, 4.002e-3
-0.721, 3.977e-3
-0.720, 3.882e-3
-0.719, 3.805e-3
-0.718, 3.771e-3
-0.717, 3.732e-3
-0.716, 3.658e-3
-0.715, 3.649e-3
-0.714, 3.551e-3
-0.713, 3.572e-3
-0.712, 3.501e-3
-0.711, 3.458e-3
-0.710, 3.388e-3
-0.709, 3.333e-3
-0.708, 3.336e-3
-0.707, 3.244e-3
-0.706, 3.259e-3
-0.705, 3.228e-3
-0.704, 3.142e-3
-0.703, 3.060e-3
-0.702, 2.992e-3
-0.701, 2.971e-3
-0.700, 2.946e-3
-0.699, 2.888e-3
-0.698, 2.854e-3
-0.697, 2.799e-3
-0.696, 2.744e-3
-0.695, 2.698e-3
-0.694, 2.667e-3
-0.693, 2.658e-3
-0.692, 2.587e-3
-0.691, 2.553e-3
-0.690, 2.544e-3
-0.689, 2.541e-3
-0.688, 2.547e-3
-0.687, 2.550e-3
-0.686, 2.504e-3
-0.685, 2.458e-3
-0.684, 2.440e-3
-0.683, 2.415e-3
-0.682, 2.412e-3
-0.681, 2.400e-3
-0.680, 2.369e-3
-0.679, 2.342e-3
-0.678, 2.256e-3
-0.677, 2.201e-3
-0.676, 2.164e-3
-0.675, 2.154e-3
-0.674, 2.133e-3
-0.673, 2.069e-3
-0.672, 1.998e-3
-0.671, 1.952e-3
-0.670, 1.952e-3
-0.669, 1.900e-3
-0.668, 1.857e-3
-0.667, 1.823e-3
-0.666, 1.786e-3
-0.665, 1.734e-3
-0.664, 1.743e-3
-0.663, 1.731e-3
-0.662, 1.697e-3
-0.661, 1.670e-3
-0.660, 1.630e-3
-0.659, 1.556e-3
-0.658, 1.538e-3
-0.657, 1.562e-3
-0.656, 1.507e-3
-0.655, 1.526e-3
-0.654, 1.518e-3
-0.653, 1.489e-3
-0.652, 1.446e-3
-0.651, 1.410e-3
-0.650, 1.381e-3
-0.649, 1.363e-3
-0.648, 1.325e-3
-0.647, 1.284e-3
-0.646, 1.259e-3
-0.645, 1.273e-3
-0.644, 1.222e-3
-0.643, 1.196e-3
-0.642, 1.165e-3
-0.641, 1.139e-3
-0.640, 1.131e-3
-0.639, 1.091e-3
-0.638, 1.041e-3
-0.637, 1.001e-3
-0.636, 1.004e-3
-0.635, 9.877e-4
-0.634, 9.751e-4
-0.633, 9.549e-4
-0.632, 9.515e-4
-0.631, 9.227e-4
-0.630, 8.782e-4
-0.629, 8.794e-4
-0.628, 8.656e-4
-0.627, 8.463e-4
-0.626, 8.223e-4
-0.625, 7.929e-4
-0.624, 7.760e-4
-0.623, 7.631e-4
-0.622, 7.321e-4
-0.621, 7.057e-4
-0.620, 7.021e-4
-0.619, 6.677e-4
-0.618, 6.447e-4
-0.617, 6.131e-4
-0.616, 6.232e-4
-0.615, 6.128e-4
-0.614, 6.069e-4
-0.613, 5.799e-4
-0.612, 5.477e-4
-0.611, 5.134e-4
-0.610, 4.848e-4
-0.609, 4.640e-4
-0.608, 4.698e-4
-0.607, 4.449e-4
-0.606, 4.275e-4
-0.605, 4.121e-4
-0.604, 3.851e-4
-0.603, 3.560e-4
-0.602, 3.400e-4
-0.601, 3.238e-4
-0.600, 3.486e-4
-0.599, 3.290e-4
-0.598, 3.066e-4
-0.597, 2.719e-4
-0.596, 3.192e-4
-0.595, 3.001e-4
-0.594, 2.744e-4
-0.593, 2.455e-4
-0.592, 2.339e-4
-0.591, 2.197e-4
-0.590, 1.949e-4
-0.589, 1.630e-4
-0.588, 1.587e-4
-0.587, 1.381e-4
-0.586, 1.261e-4
-0.585, 4.533e-4
-0.584, 4.609e-4
-0.583, 4.210e-4
-0.582, 3.906e-4
-0.581, 3.649e-4
-0.580, 3.348e-4
-0.579, 3.142e-4
-0.578, 2.888e-4
-0.577, 2.587e-4
-0.576, 2.375e-4
-0.575, 2.047e-4
-0.574, 1.940e-4
-0.573, 1.700e-4
-0.572, 1.421e-4
-0.571, 1.270e-4
-0.570, 1.205e-4
-0.569, 1.072e-4
-0.568, 8.294e-5
-0.567, 5.217e-5
-0.566, 3.382e-5
-0.565, 1.489e-5
-0.564, 2.768e-6
-0.563, -9.686e-6
-0.562, -2.987e-5
-0.561, -6.249e-5
-0.560, -6.949e-5
-0.559, -6.964e-5
-0.558, -7.575e-5
-0.557, -8.351e-5
-0.556, -9.498e-5
-0.555, -1.099e-4
-0.554, -1.267e-4
-0.553, -1.416e-4
-0.552, -1.470e-4
-0.551, -1.287e-4
-0.550, -1.463e-4
-0.549, -1.707e-4
-0.548, -1.973e-4
-0.547, -2.136e-4
-0.546, -2.331e-4
-0.545, -2.251e-4
-0.544, -2.441e-4
-0.543, -2.637e-4
-0.542, -2.849e-4
-0.541, -2.932e-4
-0.540, -3.077e-4
-0.539, -3.203e-4
-0.538, -3.439e-4
-0.537, -3.608e-4
-0.536, -3.718e-4
-0.535, -3.832e-4
-0.534, -3.945e-4
-0.533, -4.065e-4
-0.532, -4.230e-4
-0.531, -4.362e-4
-0.530, -4.510e-4
-0.529, -4.675e-4
-0.528, -4.730e-4
-0.527, -4.902e-4
-0.526, -5.062e-4
-0.525, -5.237e-4
-0.524, -5.252e-4
-0.523, -5.353e-4
-0.522, -5.433e-4
-0.521, -5.390e-4
-0.520, -5.580e-4
-0.519, -5.755e-4
-0.518, -5.909e-4
-0.517, -6.071e-4
-0.516, -6.237e-4
-0.515, -6.366e-4
-0.514, -6.562e-4
-0.513, -6.703e-4
-0.512, -6.823e-4
-0.511, -6.930e-4
-0.510, -7.038e-4
-0.509, -7.154e-4
-0.508, -7.308e-4
-0.507, -7.335e-4
-0.506, -7.477e-4
-0.505, -7.612e-4
-0.504, -7.756e-4
-0.503, -7.857e-4
-0.502, -7.989e-4
-0.501, -8.093e-4
-0.500, -8.213e-4
-0.499, -8.308e-4
-0.498, -8.425e-4
-0.497, -8.538e-4
-0.496, -8.606e-4
-0.495, -8.655e-4
-0.494, -8.780e-4
-0.493, -8.928e-4
-0.492, -9.011e-4
-0.491, -9.112e-4
-0.490, -9.256e-4
-0.489, -9.351e-4
-0.488, -9.428e-4
-0.487, -9.548e-4
-0.486, -9.652e-4
-0.485, -9.775e-4
-0.484, -9.894e-4
-0.483, -1.000e-3
-0.482, -1.010e-3
-0.481, -1.021e-3
-0.480, -1.031e-3
-0.479, -1.040e-3
-0.478, -1.046e-3
-0.477, -1.058e-3
-0.476, -1.066e-3
-0.475, -1.073e-3
-0.474, -1.085e-3
-0.473, -1.096e-3
-0.472, -1.104e-3
-0.471, -1.115e-3
-0.470, -1.125e-3
-0.469, -1.135e-3
-0.468, -1.145e-3
-0.467, -1.154e-3
-0.466, -1.162e-3
-0.465, -1.171e-3
-0.464, -1.181e-3
-0.463, -1.191e-3
-0.462, -1.200e-3
-0.461, -1.211e-3
-0.460, -1.220e-3
-0.459, -1.228e-3
-0.458, -1.237e-3
-0.457, -1.245e-3
-0.456, -1.253e-3
-0.455, -1.263e-3
-0.454, -1.272e-3
-0.453, -1.278e-3
-0.452, -1.287e-3
-0.451, -1.293e-3
-0.450, -1.291e-3
-0.449, -1.301e-3
-0.448, -1.308e-3
-0.447, -1.317e-3
-0.446, -1.326e-3
-0.445, -1.334e-3
-0.444, -1.343e-3
-0.443, -1.350e-3
-0.442, -1.359e-3
-0.441, -1.368e-3
-0.440, -1.374e-3
-0.439, -1.382e-3
-0.438, -1.392e-3
-0.437, -1.400e-3
-0.436, -1.409e-3
-0.435, -1.416e-3
-0.434, -1.424e-3
-0.433, -1.432e-3
-0.432, -1.431e-3
-0.431, -1.439e-3
-0.430, -1.447e-3
-0.429, -1.454e-3
-0.428, -1.463e-3
-0.427, -1.471e-3
-0.426, -1.477e-3
-0.425, -1.487e-3
-0.424, -1.493e-3
-0.423, -1.501e-3
-0.422, -1.509e-3
-0.421, -1.517e-3
-0.420, -1.526e-3
-0.419, -1.534e-3
-0.418, -1.542e-3
-0.417, -1.544e-3
-0.416, -1.550e-3
-0.415, -1.555e-3
-0.414, -1.560e-3
-0.413, -1.565e-3
-0.412, -1.570e-3
-0.411, -1.572e-3
-0.410, -1.578e-3
-0.409, -1.587e-3
-0.408, -1.595e-3
-0.407, -1.604e-3
-0.406, -1.612e-3
-0.405, -1.620e-3
-0.404, -1.627e-3
-0.403, -1.637e-3
-0.402, -1.645e-3
-0.401, -1.654e-3
-0.400, -1.660e-3
-0.399, -1.668e-3
-0.398, -1.676e-3
-0.397, -1.685e-3
-0.396, -1.693e-3
-0.395, -1.700e-3
-0.394, -1.708e-3
-0.393, -1.718e-3
-0.392, -1.727e-3
-0.391, -1.734e-3
-0.390, -1.743e-3
-0.389, -1.751e-3
-0.388, -1.758e-3
-0.387, -1.765e-3
-0.386, -1.773e-3
-0.385, -1.782e-3
-0.384, -1.790e-3
-0.383, -1.797e-3
-0.382, -1.805e-3
-0.381, -1.811e-3
-0.380, -1.819e-3
-0.379, -1.826e-3
-0.378, -1.834e-3
-0.377, -1.841e-3
-0.376, -1.849e-3
-0.375, -1.856e-3
-0.374, -1.864e-3
-0.373, -1.871e-3
-0.372, -1.879e-3
-0.371, -1.886e-3
-0.370, -1.893e-3
-0.369, -1.901e-3
-0.368, -1.907e-3
-0.367, -1.915e-3
-0.366, -1.922e-3
-0.365, -1.929e-3
-0.364, -1.937e-3
-0.363, -1.945e-3
-0.362, -1.953e-3
-0.361, -1.960e-3
-0.360, -1.967e-3
-0.359, -1.974e-3
-0.358, -1.982e-3
-0.357, -1.989e-3
-0.356, -1.996e-3
-0.355, -2.002e-3
-0.354, -2.010e-3
-0.353, -2.017e-3
-0.352, -2.023e-3
-0.351, -2.034e-3
-0.350, -2.041e-3
-0.349, -2.047e-3
-0.348, -2.054e-3
-0.347, -2.061e-3
-0.346, -2.068e-3
-0.345, -2.075e-3
-0.344, -2.081e-3
-0.343, -2.088e-3
-0.342, -2.095e-3
-0.341, -2.101e-3
-0.340, -2.108e-3
-0.339, -2.115e-3
-0.338, -2.121e-3
-0.337, -2.129e-3
-0.336, -2.134e-3
-0.335, -2.141e-3
-0.334, -2.148e-3
-0.333, -2.154e-3
-0.332, -2.161e-3
-0.331, -2.166e-3
-0.330, -2.174e-3
-0.329, -2.181e-3
-0.328, -2.187e-3
-0.327, -2.194e-3
-0.326, -2.201e-3
-0.325, -2.207e-3
-0.324, -2.212e-3
-0.323, -2.219e-3
-0.322, -2.224e-3
-0.321, -2.232e-3
-0.320, -2.238e-3
-0.319, -2.245e-3
-0.318, -2.251e-3
-0.317, -2.257e-3
-0.316, -2.264e-3
-0.315, -2.272e-3
-0.314, -2.279e-3
-0.313, -2.286e-3
-0.312, -2.292e-3
-0.311, -2.298e-3
-0.310, -2.305e-3
-0.309, -2.311e-3
-0.308, -2.318e-3
-0.307, -2.325e-3
-0.306, -2.331e-3
-0.305, -2.336e-3
-0.304, -2.342e-3
-0.303, -2.349e-3
-0.302, -2.355e-3
-0.301, -2.362e-3
-0.300, -2.371e-3
-0.299, -2.377e-3
-0.298, -2.383e-3
-0.297, -2.390e-3
-0.296, -2.396e-3
-0.295, -2.402e-3
-0.294, -2.408e-3
-0.293, -2.414e-3
-0.292, -2.420e-3
-0.291, -2.426e-3
-0.290, -2.433e-3
-0.289, -2.439e-3
-0.288, -2.446e-3
-0.287, -2.453e-3
-0.286, -2.459e-3
-0.285, -2.465e-3
-0.284, -2.472e-3
-0.283, -2.477e-3
-0.282, -2.484e-3
-0.281, -2.490e-3
-0.280, -2.495e-3
-0.279, -2.502e-3
-0.278, -2.508e-3
-0.277, -2.513e-3
-0.276, -2.520e-3
-0.275, -2.526e-3
-0.274, -2.531e-3
-0.273, -2.538e-3
-0.272, -2.544e-3
-0.271, -2.550e-3
-0.270, -2.556e-3
-0.269, -2.562e-3
-0.268, -2.569e-3
-0.267, -2.574e-3
-0.266, -2.580e-3
-0.265, -2.586e-3
-0.264, -2.591e-3
-0.263, -2.598e-3
-0.262, -2.604e-3
-0.261, -2.609e-3
-0.260, -2.615e-3
-0.259, -2.621e-3
-0.258, -2.627e-3
-0.257, -2.633e-3
-0.256, -2.638e-3
-0.255, -2.645e-3
-0.254, -2.651e-3
-0.253, -2.657e-3
-0.252, -2.663e-3
-0.251, -2.669e-3
-0.250, -2.675e-3
-0.249, -2.681e-3
-0.248, -2.686e-3
-0.247, -2.692e-3
-0.246, -2.698e-3
-0.245, -2.704e-3
-0.244, -2.710e-3
-0.243, -2.720e-3
-0.242, -2.727e-3
-0.241, -2.732e-3
-0.240, -2.737e-3
-0.239, -2.744e-3
-0.238, -2.749e-3
-0.237, -2.755e-3
-0.236, -2.761e-3
-0.235, -2.767e-3
-0.234, -2.772e-3
-0.233, -2.777e-3
-0.232, -2.783e-3
-0.231, -2.789e-3
-0.230, -2.795e-3
-0.229, -2.800e-3
-0.228, -2.806e-3
-0.227, -2.811e-3
-0.226, -2.817e-3
-0.225, -2.823e-3
-0.224, -2.828e-3
-0.223, -2.835e-3
-0.222, -2.840e-3
-0.221, -2.845e-3
-0.220, -2.852e-3
-0.219, -2.859e-3
-0.218, -2.865e-3
-0.217, -2.871e-3
-0.216, -2.876e-3
-0.215, -2.882e-3
-0.214, -2.887e-3
-0.213, -2.893e-3
-0.212, -2.899e-3
-0.211, -2.905e-3
-0.210, -2.910e-3
-0.209, -2.916e-3
-0.208, -2.921e-3
-0.207, -2.927e-3
-0.206, -2.933e-3
-0.205, -2.938e-3
-0.204, -2.944e-3
-0.203, -2.949e-3
-0.202, -2.954e-3
-0.201, -2.960e-3
-0.200, -2.965e-3
-0.199, -2.971e-3
-0.198, -2.976e-3
-0.197, -2.981e-3
-0.196, -2.987e-3
-0.195, -2.992e-3
-0.194, -2.997e-3
-0.193, -3.003e-3
-0.192, -3.009e-3
-0.191, -3.012e-3
-0.190, -3.018e-3
-0.189, -3.022e-3
-0.188, -3.028e-3
-0.187, -3.034e-3
-0.186, -3.040e-3
-0.185, -3.046e-3
-0.184, -3.049e-3
-0.183, -3.055e-3
-0.182, -3.061e-3
-0.181, -3.068e-3
-0.180, -3.074e-3
-0.179, -3.077e-3
-0.178, -3.083e-3
-0.177, -3.089e-3
-0.176, -3.095e-3
-0.175, -3.098e-3
-0.174, -3.104e-3
-0.173, -3.110e-3
-0.172, -3.117e-3
-0.171, -3.120e-3
-0.170, -3.126e-3
-0.169, -3.132e-3
-0.168, -3.138e-3
-0.167, -3.141e-3
-0.166, -3.147e-3
-0.165, -3.153e-3
-0.164, -3.160e-3
-0.163, -3.163e-3
-0.162, -3.169e-3
-0.161, -3.175e-3
-0.160, -3.181e-3
-0.159, -3.184e-3
-0.158, -3.190e-3
-0.157, -3.196e-3
-0.156, -3.203e-3
-0.155, -3.206e-3
-0.154, -3.212e-3
-0.153, -3.218e-3
-0.152, -3.224e-3
-0.151, -3.227e-3
-0.150, -3.233e-3
-0.149, -3.239e-3
-0.148, -3.245e-3
-0.147, -3.252e-3
-0.146, -3.255e-3
-0.145, -3.261e-3
-0.144, -3.267e-3
-0.143, -3.270e-3
-0.142, -3.276e-3
-0.141, -3.282e-3
-0.140, -3.288e-3
-0.139, -3.292e-3
-0.138, -3.298e-3
-0.137, -3.304e-3
-0.136, -3.307e-3
-0.135, -3.313e-3
-0.134, -3.319e-3
-0.133, -3.325e-3
-0.132, -3.331e-3
-0.131, -3.334e-3
-0.130, -3.341e-3
-0.129, -3.347e-3
-0.128, -3.350e-3
-0.127, -3.356e-3
-0.126, -3.362e-3
-0.125, -3.368e-3
-0.124, -3.374e-3
-0.123, -3.377e-3
-0.122, -3.384e-3
-0.121, -3.390e-3
-0.120, -3.396e-3
-0.119, -3.402e-3
-0.118, -3.408e-3
-0.117, -3.411e-3
-0.116, -3.417e-3
-0.115, -3.423e-3
-0.114, -3.427e-3
-0.113, -3.433e-3
-0.112, -3.439e-3
-0.111, -3.442e-3
-0.110, -3.448e-3
-0.109, -3.454e-3
-0.108, -3.460e-3
-0.107, -3.463e-3
-0.106, -3.469e-3
-0.105, -3.476e-3
-0.104, -3.482e-3
-0.103, -3.488e-3
-0.102, -3.494e-3
-0.101, -3.506e-3
-0.100, -3.525e-3
-0.099, -3.531e-3
-0.098, -3.534e-3
-0.097, -3.540e-3
-0.096, -3.546e-3
-0.095, -3.552e-3
-0.094, -3.558e-3
-0.093, -3.562e-3
-0.092, -3.568e-3
-0.091, -3.574e-3
-0.090, -3.580e-3
-0.089, -3.586e-3
-0.088, -3.589e-3
-0.087, -3.595e-3
-0.086, -3.601e-3
-0.085, -3.608e-3
-0.084, -3.614e-3
-0.083, -3.620e-3
-0.082, -3.626e-3
-0.081, -3.632e-3
-0.080, -3.635e-3
-0.079, -3.641e-3
-0.078, -3.647e-3
-0.077, -3.654e-3
-0.076, -3.660e-3
-0.075, -3.666e-3
-0.074, -3.672e-3
-0.073, -3.678e-3
-0.072, -3.684e-3
-0.071, -3.687e-3
-0.070, -3.697e-3
-0.069, -3.700e-3
-0.068, -3.709e-3
-0.067, -3.715e-3
-0.066, -3.721e-3
-0.065, -3.727e-3
-0.064, -3.733e-3
-0.063, -3.739e-3
-0.062, -3.746e-3
-0.061, -3.749e-3
-0.060, -3.755e-3
-0.059, -3.761e-3
-0.058, -3.767e-3
-0.057, -3.776e-3
-0.056, -3.779e-3
-0.055, -3.785e-3
-0.054, -3.795e-3
-0.053, -3.798e-3
-0.052, -3.807e-3
-0.051, -3.813e-3
-0.050, -3.819e-3
-0.049, -3.825e-3
-0.048, -3.832e-3
-0.047, -3.838e-3
-0.046, -3.844e-3
-0.045, -3.850e-3
-0.044, -3.859e-3
-0.043, -3.862e-3
-0.042, -3.871e-3
-0.041, -3.878e-3
-0.040, -3.884e-3
-0.039, -3.890e-3
-0.038, -3.896e-3
-0.037, -3.902e-3
-0.036, -3.908e-3
-0.035, -3.914e-3
-0.034, -3.920e-3
-0.033, -3.930e-3
-0.032, -3.936e-3
-0.031, -3.942e-3
-0.030, -3.948e-3
-0.029, -3.954e-3
-0.028, -3.963e-3
-0.027, -3.970e-3
-0.026, -3.976e-3
-0.025, -3.982e-3
-0.024, -3.988e-3
-0.023, -3.994e-3
-0.022, -4.003e-3
-0.021, -4.009e-3
-0.020, -4.016e-3
-0.019, -4.022e-3
-0.018, -4.028e-3
-0.017, -4.037e-3
-0.016, -4.043e-3
-0.015, -4.049e-3
-0.014, -4.055e-3
-0.013, -4.065e-3
-0.012, -4.071e-3
-0.011, -4.077e-3
-0.010, -4.083e-3
-0.009, -4.089e-3
-0.008, -4.098e-3
-0.007, -4.105e-3
-0.006, -4.114e-3
-0.005, -4.120e-3
-0.004, -4.126e-3
-0.003, -4.132e-3
-0.002, -4.141e-3
-0.001, -4.148e-3
-0.000, -4.157e-3
0.001, -4.166e-3
0.002, -4.172e-3
0.003, -4.178e-3
0.004, -4.184e-3
0.005, -4.190e-3
0.006, -4.200e-3
0.007, -4.206e-3
0.008, -4.212e-3
0.009, -4.221e-3
0.010, -4.227e-3
0.011, -4.233e-3
0.012, -4.243e-3
0.013, -4.249e-3
0.014, -4.255e-3
0.015, -4.261e-3
0.016, -4.267e-3
0.017, -4.276e-3
0.018, -4.283e-3
0.019, -4.292e-3
0.020, -4.298e-3
0.021, -4.307e-3
0.022, -4.313e-3
0.023, -4.319e-3
0.024, -4.325e-3
0.025, -4.335e-3
0.026, -4.341e-3
0.027, -4.350e-3
0.028, -4.356e-3
0.029, -4.362e-3
0.030, -4.372e-3
0.031, -4.378e-3
0.032, -4.384e-3
0.033, -4.393e-3
0.034, -4.402e-3
0.035, -4.408e-3
0.036, -4.414e-3
0.037, -4.421e-3
0.038, -4.430e-3
0.039, -4.436e-3
0.040, -4.442e-3
0.041, -4.451e-3
0.042, -4.457e-3
0.043, -4.464e-3
0.044, -4.473e-3
0.045, -4.479e-3
0.046, -4.485e-3
0.047, -4.494e-3
0.048, -4.500e-3
0.049, -4.507e-3
0.050, -4.516e-3
0.051, -4.522e-3
0.052, -4.531e-3
0.053, -4.537e-3
0.054, -4.543e-3
0.055, -4.549e-3
0.056, -4.556e-3
0.057, -4.565e-3
0.058, -4.571e-3
0.059, -4.577e-3
0.060, -4.586e-3
0.061, -4.592e-3
0.062, -4.599e-3
0.063, -4.608e-3
0.064, -4.614e-3
0.065, -4.623e-3
0.066, -4.629e-3
0.067, -4.635e-3
0.068, -4.645e-3
0.069, -4.651e-3
0.070, -4.657e-3
0.071, -4.666e-3
0.072, -4.672e-3
0.073, -4.678e-3
0.074, -4.688e-3
0.075, -4.694e-3
0.076, -4.700e-3
0.077, -4.706e-3
0.078, -4.715e-3
0.079, -4.721e-3
0.080, -4.727e-3
0.081, -4.734e-3
0.082, -4.740e-3
0.083, -4.749e-3
0.084, -4.755e-3
0.085, -4.761e-3
0.086, -4.767e-3
0.087, -4.777e-3
0.088, -4.780e-3
0.089, -4.786e-3
0.090, -4.792e-3
0.091, -4.798e-3
0.092, -4.804e-3
0.093, -4.810e-3
0.094, -4.816e-3
0.095, -4.826e-3
0.096, -4.832e-3
0.097, -4.838e-3
0.098, -4.844e-3
0.099, -4.853e-3
0.100, -4.859e-3
0.101, -4.865e-3
0.102, -4.872e-3
0.103, -4.881e-3
0.104, -4.884e-3
0.105, -4.893e-3
0.106, -4.899e-3
0.107, -4.905e-3
0.108, -4.912e-3
0.109, -4.918e-3
0.110, -4.927e-3
0.111, -4.933e-3
0.112, -4.939e-3
0.113, -4.945e-3
0.114, -4.951e-3
0.115, -4.958e-3
0.116, -4.967e-3
0.117, -4.970e-3
0.118, -4.979e-3
0.119, -4.985e-3
0.120, -4.991e-3
0.121, -4.997e-3
0.122, -5.004e-3
0.123, -5.007e-3
0.124, -5.013e-3
0.125, -5.019e-3
0.126, -5.025e-3
0.127, -5.031e-3
0.128, -5.037e-3
0.129, -5.047e-3
0.130, -5.053e-3
0.131, -5.056e-3
0.132, -5.065e-3
0.133, -5.068e-3
0.134, -5.074e-3
0.135, -5.083e-3
0.136, -5.086e-3
0.137, -5.096e-3
0.138, -5.102e-3
0.139, -5.108e-3
0.140, -5.114e-3
0.141, -5.120e-3
0.142, -5.126e-3
0.143, -5.132e-3
0.144, -5.139e-3
0.145, -5.145e-3
0.146, -5.151e-3
0.147, -5.157e-3
0.148, -5.163e-3
0.149, -5.169e-3
0.150, -5.175e-3
0.151, -5.182e-3
0.152, -5.188e-3
0.153, -5.194e-3
0.154, -5.200e-3
0.155, -5.206e-3
0.156, -5.212e-3
0.157, -5.218e-3
0.158, -5.224e-3
0.159, -5.231e-3
0.160, -5.237e-3
0.161, -5.243e-3
0.162, -5.249e-3
0.163, -5.252e-3
0.164, -5.261e-3
0.165, -5.264e-3
0.166, -5.270e-3
0.167, -5.277e-3
0.168, -5.283e-3
0.169, -5.289e-3
0.170, -5.295e-3
0.171, -5.301e-3
0.172, -5.307e-3
0.173, -5.313e-3
0.174, -5.320e-3
0.175, -5.326e-3
0.176, -5.332e-3
0.177, -5.338e-3
0.178, -5.344e-3
0.179, -5.350e-3
0.180, -5.356e-3
0.181, -5.359e-3
0.182, -5.369e-3
0.183, -5.375e-3
0.184, -5.378e-3
0.185, -5.384e-3
0.186, -5.393e-3
0.187, -5.396e-3
0.188, -5.402e-3
0.189, -5.409e-3
0.190, -5.415e-3
0.191, -5.412e-3
0.192, -5.421e-3
0.193, -5.430e-3
0.194, -5.439e-3
0.195, -5.442e-3
0.196, -5.452e-3
0.197, -5.458e-3
0.198, -5.464e-3
0.199, -5.470e-3
0.200, -5.476e-3
0.201, -5.482e-3
0.202, -5.488e-3
0.203, -5.494e-3
0.204, -5.501e-3
0.205, -5.507e-3
0.206, -5.513e-3
0.207, -5.519e-3
0.208, -5.522e-3
0.209, -5.528e-3
0.210, -5.534e-3
0.211, -5.540e-3
0.212, -5.547e-3
0.213, -5.553e-3
0.214, -5.559e-3
0.215, -5.565e-3
0.216, -5.571e-3
0.217, -5.577e-3
0.218, -5.583e-3
0.219, -5.590e-3
0.220, -5.596e-3
0.221, -5.599e-3
0.222, -5.608e-3
0.223, -5.614e-3
0.224, -5.620e-3
0.225, -5.626e-3
0.226, -5.633e-3
0.227, -5.636e-3
0.228, -5.645e-3
0.229, -5.648e-3
0.230, -5.654e-3
0.231, -5.663e-3
0.232, -5.666e-3
0.233, -5.672e-3
0.234, -5.679e-3
0.235, -5.685e-3
0.236, -5.694e-3
0.237, -5.709e-3
0.238, -5.712e-3
0.239, -5.718e-3
0.240, -5.722e-3
0.241, -5.728e-3
0.242, -5.737e-3
0.243, -5.740e-3
0.244, -5.749e-3
0.245, -5.752e-3
0.246, -5.761e-3
0.247, -5.768e-3
0.248, -5.771e-3
0.249, -5.777e-3
0.250, -5.786e-3
0.251, -5.792e-3
0.252, -5.798e-3
0.253, -5.801e-3
0.254, -5.810e-3
0.255, -5.817e-3
0.256, -5.823e-3
0.257, -5.829e-3
0.258, -5.835e-3
0.259, -5.841e-3
0.260, -5.847e-3
0.261, -5.853e-3
0.262, -5.863e-3
0.263, -5.869e-3
0.264, -5.875e-3
0.265, -5.881e-3
0.266, -5.887e-3
0.267, -5.893e-3
0.268, -5.903e-3
0.269, -5.909e-3
0.270, -5.915e-3
0.271, -5.921e-3
0.272, -5.927e-3
0.273, -5.933e-3
0.274, -5.939e-3
0.275, -5.949e-3
0.276, -5.955e-3
0.277, -5.961e-3
0.278, -5.967e-3
0.279, -5.973e-3
0.280, -5.979e-3
0.281, -5.988e-3
0.282, -5.995e-3
0.283, -6.001e-3
0.284, -6.010e-3
0.285, -6.016e-3
0.286, -6.022e-3
0.287, -6.028e-3
0.288, -6.034e-3
0.289, -6.041e-3
0.290, -6.047e-3
0.291, -6.053e-3
0.292, -6.062e-3
0.293, -6.068e-3
0.294, -6.074e-3
0.295, -6.080e-3
0.296, -6.087e-3
0.297, -6.093e-3
0.298, -6.105e-3
0.299, -6.117e-3
0.300, -6.123e-3
0.301, -6.130e-3
0.302, -6.136e-3
0.303, -6.145e-3
0.304, -6.148e-3
0.305, -6.154e-3
0.306, -6.163e-3
0.307, -6.169e-3
0.308, -6.176e-3
0.309, -6.182e-3
0.310, -6.185e-3
0.311, -6.191e-3
0.312, -6.197e-3
0.313, -6.203e-3
0.314, -6.212e-3
0.315, -6.219e-3
0.316, -6.225e-3
0.317, -6.231e-3
0.318, -6.237e-3
0.319, -6.246e-3
0.320, -6.249e-3
0.321, -6.255e-3
0.322, -6.262e-3
0.323, -6.268e-3
0.324, -6.274e-3
0.325, -6.280e-3
0.326, -6.286e-3
0.327, -6.292e-3
0.328, -6.298e-3
0.329, -6.304e-3
0.330, -6.311e-3
0.331, -6.317e-3
0.332, -6.323e-3
0.333, -6.329e-3
0.334, -6.332e-3
0.335, -6.341e-3
0.336, -6.347e-3
0.337, -6.350e-3
0.338, -6.357e-3
0.339, -6.363e-3
0.340, -6.369e-3
0.341, -6.375e-3
0.342, -6.381e-3
0.343, -6.387e-3
0.344, -6.390e-3
0.345, -6.397e-3
0.346, -6.403e-3
0.347, -6.409e-3
0.348, -6.415e-3
0.349, -6.418e-3
0.350, -6.424e-3
0.351, -6.430e-3
0.352, -6.436e-3
0.353, -6.443e-3
0.354, -6.446e-3
0.355, -6.452e-3
0.356, -6.458e-3
0.357, -6.464e-3
0.358, -6.473e-3
0.359, -6.482e-3
0.360, -6.485e-3
0.361, -6.492e-3
0.362, -6.495e-3
0.363, -6.501e-3
0.364, -6.507e-3
0.365, -6.513e-3
0.366, -6.519e-3
0.367, -6.525e-3
0.368, -6.528e-3
0.369, -6.535e-3
0.370, -6.541e-3
0.371, -6.544e-3
0.372, -6.550e-3
0.373, -6.556e-3
0.374, -6.562e-3
0.375, -6.565e-3
0.376, -6.571e-3
0.377, -6.578e-3
0.378, -6.584e-3
0.379, -6.587e-3
0.380, -6.593e-3
0.381, -6.599e-3
0.382, -6.605e-3
0.383, -6.608e-3
0.384, -6.614e-3
0.385, -6.620e-3
0.386, -6.627e-3
0.387, -6.630e-3
0.388, -6.636e-3
0.389, -6.642e-3
0.390, -6.645e-3
0.391, -6.651e-3
0.392, -6.657e-3
0.393, -6.663e-3
0.394, -6.667e-3
0.395, -6.673e-3
0.396, -6.679e-3
0.397, -6.685e-3
0.398, -6.688e-3
0.399, -6.694e-3
0.400, -6.700e-3
0.401, -6.706e-3
0.402, -6.709e-3
0.403, -6.719e-3
0.404, -6.725e-3
0.405, -6.728e-3
0.406, -6.734e-3
0.407, -6.740e-3
0.408, -6.746e-3
0.409, -6.752e-3
0.410, -6.762e-3
0.411, -6.765e-3
0.412, -6.771e-3
0.413, -6.774e-3
0.414, -6.780e-3
0.415, -6.786e-3
0.416, -6.792e-3
0.417, -6.798e-3
0.418, -6.805e-3
0.419, -6.808e-3
0.420, -6.814e-3
0.421, -6.820e-3
0.422, -6.823e-3
0.423, -6.829e-3
0.424, -6.835e-3
0.425, -6.838e-3
0.426, -6.844e-3
0.427, -6.851e-3
0.428, -6.857e-3
0.429, -6.863e-3
0.430, -6.869e-3
0.431, -6.872e-3
0.432, -6.878e-3
0.433, -6.884e-3
0.434, -6.890e-3
0.435, -6.897e-3
0.436, -6.900e-3
0.437, -6.906e-3
0.438, -6.912e-3
0.439, -6.918e-3
0.440, -6.921e-3
0.441, -6.927e-3
0.442, -6.933e-3
0.443, -6.940e-3
0.444, -6.946e-3
0.445, -6.949e-3
0.446, -6.955e-3
0.447, -6.961e-3
0.448, -6.964e-3
0.449, -6.970e-3
0.450, -6.976e-3
0.451, -6.983e-3
0.452, -6.989e-3
0.453, -6.992e-3
0.454, -6.998e-3
0.455, -7.004e-3
0.456, -7.007e-3
0.457, -7.013e-3
0.458, -7.019e-3
0.459, -7.022e-3
0.460, -7.029e-3
0.461, -7.035e-3
0.462, -7.038e-3
0.463, -7.044e-3
0.464, -7.047e-3
0.465, -7.053e-3
0.466, -7.056e-3
0.467, -7.062e-3
0.468, -7.065e-3
0.469, -7.068e-3
0.470, -7.075e-3
0.471, -7.078e-3
0.472, -7.084e-3
0.473, -7.087e-3
0.474, -7.090e-3
0.475, -7.093e-3
0.476, -7.099e-3
0.477, -7.102e-3
0.478, -7.105e-3
0.479, -7.111e-3
0.480, -7.114e-3
0.481, -7.118e-3
0.482, -7.121e-3
0.483, -7.124e-3
0.484, -7.130e-3
0.485, -7.130e-3
0.486, -7.133e-3
0.487, -7.139e-3
0.488, -7.139e-3
0.489, -7.145e-3
0.490, -7.148e-3
0.491, -7.151e-3
0.492, -7.154e-3
0.493, -7.157e-3
0.494, -7.160e-3
0.495, -7.164e-3
0.496, -7.164e-3
0.497, -7.167e-3
0.498, -7.170e-3
0.499, -7.173e-3
0.500, -7.176e-3
0.501, -7.176e-3
0.502, -7.179e-3
0.503, -7.182e-3
0.504, -7.185e-3
0.505, -7.188e-3
0.506, -7.188e-3
0.507, -7.191e-3
0.508, -7.194e-3
0.509, -7.194e-3
0.510, -7.197e-3
0.511, -7.197e-3
0.512, -7.200e-3
0.513, -7.203e-3
0.514, -7.203e-3
0.515, -7.207e-3
0.516, -7.210e-3
0.517, -7.210e-3
0.518, -7.213e-3
0.519, -7.213e-3
0.520, -7.213e-3
0.521, -7.216e-3
0.522, -7.216e-3
0.523, -7.216e-3
0.524, -7.216e-3
0.525, -7.216e-3
0.526, -7.219e-3
0.527, -7.219e-3
0.528, -7.216e-3
0.529, -7.219e-3
0.530, -7.219e-3
0.531, -7.213e-3
0.532, -7.207e-3
0.533, -7.207e-3
0.534, -7.210e-3
0.535, -7.207e-3
0.536, -7.203e-3
0.537, -7.207e-3
0.538, -7.207e-3
0.539, -7.207e-3
0.540, -7.210e-3
0.541, -7.210e-3
0.542, -7.210e-3
0.543, -7.207e-3
0.544, -7.207e-3
0.545, -7.210e-3
0.546, -7.210e-3
0.547, -7.207e-3
0.548, -7.207e-3
0.549, -7.207e-3
0.550, -7.207e-3
0.551, -7.207e-3
0.552, -7.207e-3
0.553, -7.207e-3
0.554, -7.207e-3
0.555, -7.207e-3
0.556, -7.207e-3
0.557, -7.207e-3
0.558, -7.207e-3
0.559, -7.203e-3
0.560, -7.203e-3
0.561, -7.203e-3
0.562, -7.203e-3
0.563, -7.203e-3
0.564, -7.203e-3
0.565, -7.203e-3
0.566, -7.203e-3
0.567, -7.203e-3
0.568, -7.200e-3
0.569, -7.203e-3
0.570, -7.200e-3
0.571, -7.200e-3
0.572, -7.200e-3
0.573, -7.200e-3
0.574, -7.200e-3
0.575, -7.200e-3
0.576, -7.197e-3
0.577, -7.200e-3
0.578, -7.197e-3
0.579, -7.197e-3
0.580, -7.197e-3
0.581, -7.197e-3
0.582, -7.197e-3
0.583, -7.197e-3
0.584, -7.194e-3
0.585, -7.197e-3
0.586, -7.194e-3
0.587, -7.194e-3
0.588, -7.194e-3
0.589, -7.194e-3
0.590, -7.194e-3
0.591, -7.194e-3
0.592, -7.194e-3
0.593, -7.194e-3
0.594, -7.194e-3
0.595, -7.194e-3
0.596, -7.194e-3
0.597, -7.191e-3
0.598, -7.191e-3
0.599, -7.191e-3
0.600, -7.188e-3
0.601, -7.191e-3
0.602, -7.191e-3
0.603, -7.191e-3
0.604, -7.188e-3
0.605, -7.188e-3
0.606, -7.188e-3
0.607, -7.188e-3
0.608, -7.188e-3
0.609, -7.188e-3
0.610, -7.188e-3
0.611, -7.188e-3
0.612, -7.188e-3
0.613, -7.185e-3
0.614, -7.185e-3
0.615, -7.185e-3
0.616, -7.185e-3
0.617, -7.188e-3
0.618, -7.185e-3
0.619, -7.185e-3
0.620, -7.185e-3
0.621, -7.185e-3
0.622, -7.185e-3
0.623, -7.185e-3
0.624, -7.185e-3
0.625, -7.185e-3
0.626, -7.185e-3
0.627, -7.185e-3
0.628, -7.185e-3
0.629, -7.185e-3
0.630, -7.185e-3
0.631, -7.185e-3
0.632, -7.185e-3
0.633, -7.185e-3
0.634, -7.185e-3
0.635, -7.185e-3
0.636, -7.185e-3
0.637, -7.182e-3
0.638, -7.185e-3
0.639, -7.182e-3
0.640, -7.182e-3
0.641, -7.185e-3
0.642, -7.182e-3
0.643, -7.182e-3
0.644, -7.182e-3
0.645, -7.182e-3
0.646, -7.182e-3
0.647, -7.182e-3
0.648, -7.179e-3
0.649, -7.182e-3
0.650, -7.182e-3
0.651, -7.182e-3
0.652, -7.182e-3
0.653, -7.182e-3
0.654, -7.182e-3
0.655, -7.182e-3
0.656, -7.182e-3
0.657, -7.182e-3
0.658, -7.182e-3
0.659, -7.185e-3
0.660, -7.185e-3
0.661, -7.185e-3
0.662, -7.185e-3
0.663, -7.185e-3
0.664, -7.185e-3
0.665, -7.185e-3
0.666, -7.188e-3
0.667, -7.188e-3
0.668, -7.188e-3
0.669, -7.188e-3
0.670, -7.191e-3
0.671, -7.188e-3
0.672, -7.188e-3
0.673, -7.191e-3
0.674, -7.191e-3
0.675, -7.191e-3
0.676, -7.194e-3
0.677, -7.194e-3
0.678, -7.194e-3
0.679, -7.194e-3
0.680, -7.194e-3
0.681, -7.197e-3
0.682, -7.197e-3
0.683, -7.197e-3
0.684, -7.197e-3
0.685, -7.197e-3
0.686, -7.200e-3
0.687, -7.200e-3
0.688, -7.200e-3
0.689, -7.200e-3
0.690, -7.200e-3
0.691, -7.203e-3
0.692, -7.203e-3
0.693, -7.207e-3
0.694, -7.207e-3
0.695, -7.207e-3
0.696, -7.210e-3
0.697, -7.210e-3
0.698, -7.213e-3
0.699, -7.213e-3
0.700, -7.216e-3
0.701, -7.213e-3
0.702, -7.216e-3
0.703, -7.216e-3
0.704, -7.216e-3
0.705, -7.219e-3
0.706, -7.219e-3
0.707, -7.219e-3
0.708, -7.222e-3
0.709, -7.222e-3
0.710, -7.222e-3
0.711, -7.225e-3
0.712, -7.225e-3
0.713, -7.225e-3
0.714, -7.225e-3
0.715, -7.228e-3
0.716, -7.228e-3
0.717, -7.231e-3
0.718, -7.231e-3
0.719, -7.231e-3
0.720, -7.231e-3
0.721, -7.234e-3
0.722, -7.234e-3
0.723, -7.237e-3
0.724, -7.237e-3
0.725, -7.237e-3
0.726, -7.240e-3
0.727, -7.240e-3
0.728, -7.240e-3
0.729, -7.243e-3
0.730, -7.243e-3
0.731, -7.243e-3
0.732, -7.249e-3
0.733, -7.256e-3
0.734, -7.259e-3
0.735, -7.259e-3
0.736, -7.259e-3
0.737, -7.259e-3
0.738, -7.262e-3
0.739, -7.262e-3
0.740, -7.262e-3
0.741, -7.265e-3
0.742, -7.265e-3
0.743, -7.265e-3
0.744, -7.268e-3
0.745, -7.268e-3
0.746, -7.274e-3
0.747, -7.280e-3
0.748, -7.305e-3
0.749, -7.305e-3
0.750, -7.302e-3
0.751, -7.302e-3
0.752, -7.299e-3
0.753, -7.302e-3
0.754, -7.302e-3
0.755, -7.302e-3
0.756, -7.302e-3
0.757, -7.302e-3
0.758, -7.302e-3
0.759, -7.305e-3
0.760, -7.305e-3
0.761, -7.305e-3
0.762, -7.305e-3
0.763, -7.308e-3
0.764, -7.308e-3
0.765, -7.308e-3
0.766, -7.311e-3
0.767, -7.311e-3
0.768, -7.314e-3
0.769, -7.317e-3
0.770, -7.317e-3
0.771, -7.317e-3
0.772, -7.320e-3
0.773, -7.320e-3
0.774, -7.332e-3
0.775, -7.342e-3
0.776, -7.342e-3
0.777, -7.345e-3
0.778, -7.345e-3
0.779, -7.348e-3
0.780, -7.348e-3
0.781, -7.348e-3
0.782, -7.351e-3
0.783, -7.351e-3
0.784, -7.354e-3
0.785, -7.354e-3
0.786, -7.357e-3
0.787, -7.357e-3
0.788, -7.360e-3
0.789, -7.360e-3
0.790, -7.363e-3
0.791, -7.363e-3
0.792, -7.363e-3
0.793, -7.366e-3
0.794, -7.369e-3
0.795, -7.372e-3
0.796, -7.372e-3
0.797, -7.375e-3
0.798, -7.375e-3
0.799, -7.378e-3
0.800, -7.299e-3
0.799, -7.136e-3
0.798, -7.007e-3
0.797, -6.894e-3
0.796, -6.789e-3
0.795, -6.691e-3
0.794, -6.599e-3
0.793, -6.513e-3
0.792, -6.430e-3
0.791, -6.344e-3
0.790, -6.265e-3
0.789, -6.188e-3
0.788, -6.111e-3
0.787, -6.038e-3
0.786, -5.967e-3
0.785, -5.896e-3
0.784, -5.829e-3
0.783, -5.761e-3
0.782, -5.694e-3
0.781, -5.633e-3
0.780, -5.568e-3
0.779, -5.507e-3
0.778, -5.445e-3
0.777, -5.387e-3
0.776, -5.329e-3
0.775, -5.270e-3
0.774, -5.212e-3
0.773, -5.157e-3
0.772, -5.111e-3
0.771, -5.065e-3
0.770, -5.013e-3
0.769, -4.961e-3
0.768, -4.905e-3
0.767, -4.856e-3
0.766, -4.804e-3
0.765, -4.755e-3
0.764, -4.706e-3
0.763, -4.657e-3
0.762, -4.611e-3
0.761, -4.565e-3
0.760, -4.519e-3
0.759, -4.473e-3
0.758, -4.430e-3
0.757, -4.384e-3
0.756, -4.341e-3
0.755, -4.295e-3
0.754, -4.252e-3
0.753, -4.209e-3
0.752, -4.166e-3
0.751, -4.126e-3
0.750, -4.083e-3
0.749, -4.043e-3
0.748, -4.003e-3
0.747, -3.963e-3
0.746, -3.924e-3
0.745, -3.887e-3
0.744, -3.847e-3
0.743, -3.810e-3
0.742, -3.770e-3
0.741, -3.733e-3
0.740, -3.697e-3
0.739, -3.660e-3
0.738, -3.623e-3
0.737, -3.586e-3
0.736, -3.546e-3
0.735, -3.512e-3
0.734, -3.479e-3
0.733, -3.442e-3
0.732, -3.411e-3
0.731, -3.377e-3
0.730, -3.341e-3
0.729, -3.310e-3
0.728, -3.276e-3
0.727, -3.242e-3
0.726, -3.212e-3
0.725, -3.178e-3
0.724, -3.147e-3
0.723, -3.117e-3
0.722, -3.083e-3
0.721, -3.052e-3
0.720, -3.022e-3
0.719, -2.991e-3
0.718, -2.963e-3
0.717, -2.933e-3
0.716, -2.902e-3
0.715, -2.874e-3
0.714, -2.844e-3
0.713, -2.816e-3
0.712, -2.788e-3
0.711, -2.758e-3
0.710, -2.730e-3
0.709, -2.702e-3
0.708, -2.675e-3
0.707, -2.647e-3
0.706, -2.620e-3
0.705, -2.592e-3
0.704, -2.564e-3
0.703, -2.540e-3
0.702, -2.512e-3
0.701, -2.488e-3
0.700, -2.460e-3
0.699, -2.435e-3
0.698, -2.411e-3
0.697, -2.383e-3
0.696, -2.359e-3
0.695, -2.334e-3
0.694, -2.310e-3
0.693, -2.285e-3
0.692, -2.261e-3
0.691, -2.236e-3
0.690, -2.212e-3
0.689, -2.190e-3
0.688, -2.165e-3
0.687, -2.141e-3
0.686, -2.116e-3
0.685, -2.095e-3
0.684, -2.070e-3
0.683, -2.049e-3
0.682, -2.024e-3
0.681, -2.003e-3
0.680, -1.978e-3
0.679, -1.957e-3
0.678, -1.935e-3
0.677, -1.914e-3
0.676, -1.892e-3
0.675, -1.871e-3
0.674, -1.849e-3
0.673, -1.825e-3
0.672, -1.803e-3
0.671, -1.782e-3
0.670, -1.760e-3
0.669, -1.742e-3
0.668, -1.721e-3
0.667, -1.699e-3
0.666, -1.678e-3
0.665, -1.656e-3
0.664, -1.638e-3
0.663, -1.616e-3
0.662, -1.595e-3
0.661, -1.576e-3
0.660, -1.555e-3
0.659, -1.537e-3
0.658, -1.515e-3
0.657, -1.497e-3
0.656, -1.478e-3
0.655, -1.457e-3
0.654, -1.438e-3
0.653, -1.420e-3
0.652, -1.398e-3
0.651, -1.378e-3
0.650, -1.359e-3
0.649, -1.340e-3
0.648, -1.322e-3
0.647, -1.303e-3
0.646, -1.284e-3
0.645, -1.266e-3
0.644, -1.247e-3
0.643, -1.229e-3
0.642, -1.210e-3
0.641, -1.192e-3
0.640, -1.174e-3
0.639, -1.156e-3
0.638, -1.138e-3
0.637, -1.121e-3
0.636, -1.103e-3
0.635, -1.085e-3
0.634, -1.067e-3
0.633, -1.050e-3
0.632, -1.033e-3
0.631, -1.015e-3
0.630, -9.980e-4
0.629, -9.811e-4
0.628, -9.633e-4
0.627, -9.468e-4
0.626, -9.296e-4
0.625, -9.127e-4
0.624, -8.965e-4
0.623, -8.796e-4
0.622, -8.636e-4
0.621, -8.464e-4
0.620, -8.293e-4
0.619, -8.136e-4
0.618, -7.967e-4
0.617, -7.805e-4
0.616, -7.648e-4
0.615, -7.480e-4
0.614, -7.314e-4
0.613, -7.154e-4
0.612, -6.986e-4
0.611, -6.829e-4
0.610, -6.670e-4
0.609, -6.510e-4
0.608, -6.350e-4
0.607, -6.188e-4
0.606, -6.038e-4
0.605, -5.884e-4
0.604, -5.725e-4
0.603, -5.571e-4
0.602, -5.418e-4
0.601, -5.261e-4
0.600, -5.108e-4
0.599, -4.951e-4
0.598, -4.798e-4
0.597, -4.645e-4
0.596, -4.482e-4
0.595, -4.332e-4
0.594, -4.178e-4
0.593, -4.028e-4
0.592, -3.884e-4
0.591, -3.730e-4
0.590, -3.586e-4
0.589, -3.436e-4
0.588, -3.282e-4
0.587, -3.138e-4
0.586, -2.988e-4
0.585, -2.844e-4
0.584, -2.699e-4
0.583, -2.543e-4
0.582, -2.399e-4
0.581, -2.251e-4
0.580, -2.104e-4
0.579, -1.960e-4
0.578, -1.813e-4
0.577, -1.665e-4
0.576, -1.521e-4
0.575, -1.374e-4
0.574, -1.233e-4
0.573, -1.079e-4
0.572, -9.363e-5
0.571, -8.004e-5
0.570, -6.501e-5
0.569, -5.043e-5
0.568, -3.681e-5
0.567, -2.227e-5
0.566, -8.339e-6
0.565, 5.805e-6
0.564, 2.082e-5
0.563, 3.685e-5
0.562, 5.039e-5
0.561, 6.401e-5
0.560, 7.769e-5
0.559, 9.221e-5
0.558, 1.058e-4
0.557, 1.201e-4
0.556, 1.348e-4
0.555, 1.480e-4
0.554, 1.623e-4
0.553, 1.762e-4
0.552, 1.897e-4
0.551, 2.043e-4
0.550, 2.181e-4
0.549, 2.321e-4
0.548, 2.468e-4
0.547, 2.602e-4
0.546, 2.745e-4
0.545, 2.887e-4
0.544, 3.026e-4
0.543, 3.176e-4
0.542, 3.308e-4
0.541, 3.446e-4
0.540, 3.590e-4
0.539, 3.725e-4
0.538, 3.867e-4
0.537, 4.011e-4
0.536, 4.149e-4
0.535, 4.290e-4
0.534, 4.425e-4
0.533, 4.563e-4
0.532, 4.710e-4
0.531, 4.848e-4
0.530, 4.986e-4
0.529, 5.128e-4
0.528, 5.266e-4
0.527, 5.413e-4
0.526, 5.551e-4
0.525, 5.689e-4
0.524, 5.836e-4
0.523, 5.968e-4
0.522, 6.097e-4
0.521, 6.238e-4
0.520, 6.376e-4
0.519, 6.527e-4
0.518, 6.668e-4
0.517, 6.809e-4
0.516, 6.953e-4
0.515, 7.088e-4
0.514, 7.235e-4
0.513, 7.377e-4
0.512, 7.530e-4
0.511, 7.674e-4
0.510, 7.812e-4
0.509, 7.950e-4
0.508, 8.098e-4
0.507, 8.229e-4
0.506, 8.383e-4
0.505, 8.527e-4
0.504, 8.665e-4
0.503, 8.812e-4
0.502, 8.957e-4
0.501, 9.095e-4
0.500, 9.245e-4
0.499, 9.380e-4
0.498, 9.527e-4
0.497, 9.672e-4
0.496, 9.810e-4
0.495, 9.960e-4
0.494, 1.010e-3
0.493, 1.025e-3
0.492, 1.040e-3
0.491, 1.053e-3
0.490, 1.067e-3
0.489, 1.082e-3
0.488, 1.096e-3
0.487, 1.110e-3
0.486, 1.126e-3
0.485, 1.139e-3
0.484, 1.154e-3
0.483, 1.168e-3
0.482, 1.182e-3
0.481, 1.197e-3
0.480, 1.211e-3
0.479, 1.225e-3
0.478, 1.239e-3
0.477, 1.253e-3
0.476, 1.268e-3
0.475, 1.281e-3
0.474, 1.296e-3
0.473, 1.310e-3
0.472, 1.323e-3
0.471, 1.338e-3
0.470, 1.352e-3
0.469, 1.365e-3
0.468, 1.380e-3
0.467, 1.394e-3
0.466, 1.408e-3
0.465, 1.422e-3
0.464, 1.435e-3
0.463, 1.450e-3
0.462, 1.463e-3
0.461, 1.478e-3
0.460, 1.492e-3
0.459, 1.506e-3
0.458, 1.519e-3
0.457, 1.533e-3
0.456, 1.546e-3
0.455, 1.561e-3
0.454, 1.575e-3
0.453, 1.588e-3
0.452, 1.602e-3
0.451, 1.615e-3
0.450, 1.629e-3
0.449, 1.642e-3
0.448, 1.655e-3
0.447, 1.669e-3
0.446, 1.682e-3
0.445, 1.695e-3
0.444, 1.710e-3
0.443, 1.722e-3
0.442, 1.736e-3
0.441, 1.750e-3
0.440, 1.762e-3
0.439, 1.776e-3
0.438, 1.789e-3
0.437, 1.801e-3
0.436, 1.816e-3
0.435, 1.828e-3
0.434, 1.842e-3
0.433, 1.855e-3
0.432, 1.867e-3
0.431, 1.881e-3
0.430, 1.893e-3
0.429, 1.907e-3
0.428, 1.920e-3
0.427, 1.932e-3
0.426, 1.945e-3
0.425, 1.958e-3
0.424, 1.971e-3
0.423, 1.984e-3
0.422, 1.997e-3
0.421, 2.009e-3
0.420, 2.022e-3
0.419, 2.034e-3
0.418, 2.047e-3
0.417, 2.060e-3
0.416, 2.073e-3
0.415, 2.086e-3
0.414, 2.098e-3
0.413, 2.111e-3
0.412, 2.124e-3
0.411, 2.136e-3
0.410, 2.151e-3
0.409, 2.165e-3
0.408, 2.176e-3
0.407, 2.189e-3
0.406, 2.201e-3
0.405, 2.214e-3
0.404, 2.227e-3
0.403, 2.240e-3
0.402, 2.253e-3
0.401, 2.265e-3
0.400, 2.278e-3
0.399, 2.291e-3
0.398, 2.302e-3
0.397, 2.315e-3
0.396, 2.328e-3
0.395, 2.340e-3
0.394, 2.355e-3
0.393, 2.366e-3
0.392, 2.378e-3
0.391, 2.390e-3
0.390, 2.404e-3
0.389, 2.416e-3
0.388, 2.429e-3
0.387, 2.440e-3
0.386, 2.453e-3
0.385, 2.465e-3
0.384, 2.477e-3
0.383, 2.491e-3
0.382, 2.502e-3
0.381, 2.515e-3
0.380, 2.527e-3
0.379, 2.539e-3
0.378, 2.552e-3
0.377, 2.564e-3
0.376, 2.576e-3
0.375, 2.589e-3
0.374, 2.600e-3
0.373, 2.612e-3
0.372, 2.625e-3
0.371, 2.636e-3
0.370, 2.648e-3
0.369, 2.660e-3
0.368, 2.672e-3
0.367, 2.684e-3
0.366, 2.696e-3
0.365, 2.708e-3
0.364, 2.720e-3
0.363, 2.731e-3
0.362, 2.742e-3
0.361, 2.754e-3
0.360, 2.765e-3
0.359, 2.777e-3
0.358, 2.789e-3
0.357, 2.800e-3
0.356, 2.812e-3
0.355, 2.823e-3
0.354, 2.834e-3
0.353, 2.845e-3
0.352, 2.857e-3
0.351, 2.869e-3
0.350, 2.879e-3
0.349, 2.890e-3
0.348, 2.901e-3
0.347, 2.911e-3
0.346, 2.923e-3
0.345, 2.934e-3
0.344, 2.945e-3
0.343, 2.957e-3
0.342, 2.967e-3
0.341, 2.978e-3
0.340, 2.990e-3
0.339, 3.001e-3
0.338, 3.012e-3
0.337, 3.023e-3
0.336, 3.026e-3
0.335, 3.035e-3
0.334, 3.047e-3
0.333, 3.057e-3
0.332, 3.069e-3
0.331, 3.078e-3
0.330, 3.090e-3
0.329, 3.103e-3
0.328, 3.112e-3
0.327, 3.124e-3
0.326, 3.133e-3
0.325, 3.146e-3
0.324, 3.158e-3
0.323, 3.167e-3
0.322, 3.176e-3
0.321, 3.188e-3
0.320, 3.198e-3
0.319, 3.210e-3
0.318, 3.219e-3
0.317, 3.231e-3
0.316, 3.241e-3
0.315, 3.250e-3
0.314, 3.262e-3
0.313, 3.274e-3
0.312, 3.284e-3
0.311, 3.293e-3
0.310, 3.305e-3
0.309, 3.314e-3
0.308, 3.323e-3
0.307, 3.336e-3
0.306, 3.348e-3
0.305, 3.357e-3
0.304, 3.366e-3
0.303, 3.376e-3
0.302, 3.385e-3
0.301, 3.397e-3
0.300, 3.406e-3
0.299, 3.416e-3
0.298, 3.425e-3
0.297, 3.437e-3
0.296, 3.446e-3
0.295, 3.455e-3
0.294, 3.465e-3
0.293, 3.477e-3
0.292, 3.486e-3
0.291, 3.495e-3
0.290, 3.504e-3
0.289, 3.517e-3
0.288, 3.526e-3
0.287, 3.535e-3
0.286, 3.544e-3
0.285, 3.554e-3
0.284, 3.563e-3
0.283, 3.572e-3
0.282, 3.581e-3
0.281, 3.593e-3
0.280, 3.603e-3
0.279, 3.612e-3
0.278, 3.621e-3
0.277, 3.630e-3
0.276, 3.639e-3
0.275, 3.649e-3
0.274, 3.661e-3
0.273, 3.670e-3
0.272, 3.679e-3
0.271, 3.689e-3
0.270, 3.698e-3
0.269, 3.707e-3
0.268, 3.716e-3
0.267, 3.725e-3
0.266, 3.735e-3
0.265, 3.744e-3
0.264, 3.753e-3
0.263, 3.762e-3
0.262, 3.771e-3
0.261, 3.781e-3
0.260, 3.790e-3
0.259, 3.799e-3
0.258, 3.808e-3
0.257, 3.817e-3
0.256, 3.830e-3
0.255, 3.839e-3
0.254, 3.845e-3
0.253, 3.857e-3
0.252, 3.863e-3
0.251, 3.873e-3
0.250, 3.885e-3
0.249, 3.894e-3
0.248, 3.900e-3
0.247, 3.913e-3
0.246, 3.919e-3
0.245, 3.931e-3
0.244, 3.937e-3
0.243, 3.946e-3
0.242, 3.959e-3
0.241, 3.965e-3
0.240, 3.974e-3
0.239, 3.986e-3
0.238, 3.995e-3
0.237, 4.005e-3
0.236, 4.017e-3
0.235, 4.023e-3
0.234, 4.032e-3
0.233, 4.041e-3
0.232, 4.051e-3
0.231, 4.060e-3
0.230, 4.069e-3
0.229, 4.078e-3
0.228, 4.087e-3
0.227, 4.097e-3
0.226, 4.106e-3
0.225, 4.115e-3
0.224, 4.124e-3
0.223, 4.133e-3
0.222, 4.143e-3
0.221, 4.152e-3
0.220, 4.161e-3
0.219, 4.170e-3
0.218, 4.176e-3
0.217, 4.186e-3
0.216, 4.195e-3
0.215, 4.204e-3
0.214, 4.213e-3
0.213, 4.222e-3
0.212, 4.232e-3
0.211, 4.241e-3
0.210, 4.250e-3
0.209, 4.256e-3
0.208, 4.262e-3
0.207, 4.275e-3
0.206, 4.281e-3
0.205, 4.290e-3
0.204, 4.302e-3
0.203, 4.308e-3
0.202, 4.318e-3
0.201, 4.327e-3
0.200, 4.336e-3
0.199, 4.345e-3
0.198, 4.354e-3
0.197, 4.364e-3
0.196, 4.370e-3
0.195, 4.379e-3
0.194, 4.388e-3
0.193, 4.397e-3
0.192, 4.407e-3
0.191, 4.416e-3
0.190, 4.425e-3
0.189, 4.434e-3
0.188, 4.440e-3
0.187, 4.449e-3
0.186, 4.459e-3
0.185, 4.468e-3
0.184, 4.477e-3
0.183, 4.486e-3
0.182, 4.492e-3
0.181, 4.502e-3
0.180, 4.511e-3
0.179, 4.520e-3
0.178, 4.529e-3
0.177, 4.535e-3
0.176, 4.545e-3
0.175, 4.554e-3
0.174, 4.563e-3
0.173, 4.569e-3
0.172, 4.578e-3
0.171, 4.588e-3
0.170, 4.597e-3
0.169, 4.603e-3
0.168, 4.612e-3
0.167, 4.621e-3
0.166, 4.631e-3
0.165, 4.637e-3
0.164, 4.646e-3
0.163, 4.655e-3
0.162, 4.661e-3
0.161, 4.670e-3
0.160, 4.680e-3
0.159, 4.689e-3
0.158, 4.695e-3
0.157, 4.704e-3
0.156, 4.710e-3
0.155, 4.719e-3
0.154, 4.729e-3
0.153, 4.735e-3
0.152, 4.744e-3
0.151, 4.753e-3
0.150, 4.759e-3
0.149, 4.769e-3
0.148, 4.778e-3
0.147, 4.784e-3
0.146, 4.793e-3
0.145, 4.802e-3
0.144, 4.808e-3
0.143, 4.818e-3
0.142, 4.824e-3
0.141, 4.833e-3
0.140, 4.839e-3
0.139, 4.848e-3
0.138, 4.854e-3
0.137, 4.861e-3
0.136, 4.870e-3
0.135, 4.876e-3
0.134, 4.885e-3
0.133, 4.891e-3
0.132, 4.901e-3
0.131, 4.907e-3
0.130, 4.913e-3
0.129, 4.922e-3
0.128, 4.928e-3
0.127, 4.937e-3
0.126, 4.943e-3
0.125, 4.950e-3
0.124, 4.959e-3
0.123, 4.965e-3
0.122, 4.971e-3
0.121, 4.980e-3
0.120, 4.986e-3
0.119, 4.993e-3
0.118, 5.002e-3
0.117, 5.008e-3
0.116, 5.014e-3
0.115, 5.020e-3
0.114, 5.026e-3
0.113, 5.036e-3
0.112, 5.042e-3
0.111, 5.048e-3
0.110, 5.054e-3
0.109, 5.063e-3
0.108, 5.069e-3
0.107, 5.075e-3
0.106, 5.082e-3
0.105, 5.088e-3
0.104, 5.094e-3
0.103, 5.100e-3
0.102, 5.109e-3
0.101, 5.115e-3
0.100, 5.121e-3
0.099, 5.124e-3
0.098, 5.134e-3
0.097, 5.140e-3
0.096, 5.146e-3
0.095, 5.152e-3
0.094, 5.158e-3
0.093, 5.164e-3
0.092, 5.171e-3
0.091, 5.174e-3
0.090, 5.180e-3
0.089, 5.186e-3
0.088, 5.189e-3
0.087, 5.198e-3
0.086, 5.201e-3
0.085, 5.207e-3
0.084, 5.213e-3
0.083, 5.220e-3
0.082, 5.226e-3
0.081, 5.232e-3
0.080, 5.235e-3
0.079, 5.241e-3
0.078, 5.247e-3
0.077, 5.250e-3
0.076, 5.256e-3
0.075, 5.263e-3
0.074, 5.269e-3
0.073, 5.275e-3
0.072, 5.278e-3
0.071, 5.284e-3
0.070, 5.290e-3
0.069, 5.293e-3
0.068, 5.299e-3
0.067, 5.302e-3
0.066, 5.309e-3
0.065, 5.315e-3
0.064, 5.318e-3
0.063, 5.324e-3
0.062, 5.327e-3
0.061, 5.333e-3
0.060, 5.339e-3
0.059, 5.342e-3
0.058, 5.345e-3
0.057, 5.352e-3
0.056, 5.355e-3
0.055, 5.361e-3
0.054, 5.364e-3
0.053, 5.370e-3
0.052, 5.373e-3
0.051, 5.379e-3
0.050, 5.382e-3
0.049, 5.388e-3
0.048, 5.391e-3
0.047, 5.398e-3
0.046, 5.401e-3
0.045, 5.404e-3
0.044, 5.410e-3
0.043, 5.413e-3
0.042, 5.416e-3
0.041, 5.422e-3
0.040, 5.425e-3
0.039, 5.428e-3
0.038, 5.434e-3
0.037, 5.437e-3
0.036, 5.444e-3
0.035, 5.447e-3
0.034, 5.447e-3
0.033, 5.453e-3
0.032, 5.456e-3
0.031, 5.459e-3
0.030, 5.465e-3
0.029, 5.468e-3
0.028, 5.471e-3
0.027, 5.474e-3
0.026, 5.477e-3
0.025, 5.483e-3
0.024, 5.487e-3
0.023, 5.490e-3
0.022, 5.493e-3
0.021, 5.496e-3
0.020, 5.499e-3
0.019, 5.502e-3
0.018, 5.505e-3
0.017, 5.508e-3
0.016, 5.511e-3
0.015, 5.514e-3
0.014, 5.517e-3
0.013, 5.520e-3
0.012, 5.523e-3
0.011, 5.526e-3
0.010, 5.529e-3
0.009, 5.533e-3
0.008, 5.533e-3
0.007, 5.536e-3
0.006, 5.542e-3
0.005, 5.542e-3
0.004, 5.545e-3
0.003, 5.548e-3
0.002, 5.551e-3
0.001, 5.554e-3
0.000, 5.560e-3
-0.001, 5.560e-3
-0.002, 5.563e-3
-0.003, 5.566e-3
-0.004, 5.569e-3
-0.005, 5.569e-3
-0.006, 5.572e-3
-0.007, 5.576e-3
-0.008, 5.576e-3
-0.009, 5.579e-3
-0.010, 5.582e-3
-0.011, 5.582e-3
-0.012, 5.585e-3
-0.013, 5.585e-3
-0.014, 5.588e-3
-0.015, 5.591e-3
-0.016, 5.591e-3
-0.017, 5.594e-3
-0.018, 5.597e-3
-0.019, 5.597e-3
-0.020, 5.600e-3
-0.021, 5.600e-3
-0.022, 5.603e-3
-0.023, 5.603e-3
-0.024, 5.603e-3
-0.025, 5.606e-3
-0.026, 5.606e-3
-0.027, 5.609e-3
-0.028, 5.609e-3
-0.029, 5.609e-3
-0.030, 5.612e-3
-0.031, 5.612e-3
-0.032, 5.615e-3
-0.033, 5.615e-3
-0.034, 5.615e-3
-0.035, 5.618e-3
-0.036, 5.618e-3
-0.037, 5.618e-3
-0.038, 5.622e-3
-0.039, 5.622e-3
-0.040, 5.622e-3
-0.041, 5.622e-3
-0.042, 5.622e-3
-0.043, 5.625e-3
-0.044, 5.625e-3
-0.045, 5.625e-3
-0.046, 5.625e-3
-0.047, 5.625e-3
-0.048, 5.625e-3
-0.049, 5.628e-3
-0.050, 5.625e-3
-0.051, 5.628e-3
-0.052, 5.628e-3
-0.053, 5.628e-3
-0.054, 5.628e-3
-0.055, 5.628e-3
-0.056, 5.628e-3
-0.057, 5.628e-3
-0.058, 5.628e-3
-0.059, 5.628e-3
-0.060, 5.628e-3
-0.061, 5.628e-3
-0.062, 5.628e-3
-0.063, 5.628e-3
-0.064, 5.628e-3
-0.065, 5.628e-3
-0.066, 5.628e-3
-0.067, 5.628e-3
-0.068, 5.625e-3
-0.069, 5.625e-3
-0.070, 5.625e-3
-0.071, 5.625e-3
-0.072, 5.625e-3
-0.073, 5.625e-3
-0.074, 5.622e-3
-0.075, 5.622e-3
-0.076, 5.622e-3
-0.077, 5.622e-3
-0.078, 5.618e-3
-0.079, 5.618e-3
-0.080, 5.618e-3
-0.081, 5.618e-3
-0.082, 5.615e-3
-0.083, 5.612e-3
-0.084, 5.612e-3
-0.085, 5.609e-3
-0.086, 5.612e-3
-0.087, 5.609e-3
-0.088, 5.609e-3
-0.089, 5.606e-3
-0.090, 5.606e-3
-0.091, 5.606e-3
-0.092, 5.603e-3
-0.093, 5.603e-3
-0.094, 5.603e-3
-0.095, 5.600e-3
-0.096, 5.600e-3
-0.097, 5.597e-3
-0.098, 5.597e-3
-0.099, 5.594e-3
-0.100, 5.594e-3
-0.101, 5.591e-3
-0.102, 5.591e-3
-0.103, 5.588e-3
-0.104, 5.588e-3
-0.105, 5.588e-3
-0.106, 5.585e-3
-0.107, 5.582e-3
-0.108, 5.582e-3
-0.109, 5.579e-3
-0.110, 5.579e-3
-0.111, 5.576e-3
-0.112, 5.585e-3
-0.113, 5.588e-3
-0.114, 5.585e-3
-0.115, 5.585e-3
-0.116, 5.582e-3
-0.117, 5.579e-3
-0.118, 5.576e-3
-0.119, 5.572e-3
-0.120, 5.572e-3
-0.121, 5.569e-3
-0.122, 5.566e-3
-0.123, 5.566e-3
-0.124, 5.563e-3
-0.125, 5.560e-3
-0.126, 5.560e-3
-0.127, 5.557e-3
-0.128, 5.554e-3
-0.129, 5.554e-3
-0.130, 5.548e-3
-0.131, 5.548e-3
-0.132, 5.545e-3
-0.133, 5.542e-3
-0.134, 5.542e-3
-0.135, 5.539e-3
-0.136, 5.536e-3
-0.137, 5.533e-3
-0.138, 5.529e-3
-0.139, 5.526e-3
-0.140, 5.523e-3
-0.141, 5.520e-3
-0.142, 5.520e-3
-0.143, 5.517e-3
-0.144, 5.514e-3
-0.145, 5.511e-3
-0.146, 5.508e-3
-0.147, 5.508e-3
-0.148, 5.505e-3
-0.149, 5.502e-3
-0.150, 5.499e-3
-0.151, 5.496e-3
-0.152, 5.493e-3
-0.153, 5.493e-3
-0.154, 5.490e-3
-0.155, 5.487e-3
-0.156, 5.483e-3
-0.157, 5.483e-3
-0.158, 5.480e-3
-0.159, 5.477e-3
-0.160, 5.474e-3
-0.161, 5.471e-3
-0.162, 5.471e-3
-0.163, 5.468e-3
-0.164, 5.465e-3
-0.165, 5.462e-3
-0.166, 5.459e-3
-0.167, 5.459e-3
-0.168, 5.453e-3
-0.169, 5.453e-3
-0.170, 5.450e-3
-0.171, 5.447e-3
-0.172, 5.447e-3
-0.173, 5.447e-3
-0.174, 5.444e-3
-0.175, 5.441e-3
-0.176, 5.437e-3
-0.177, 5.437e-3
-0.178, 5.434e-3
-0.179, 5.431e-3
-0.180, 5.431e-3
-0.181, 5.428e-3
-0.182, 5.428e-3
-0.183, 5.425e-3
-0.184, 5.422e-3
-0.185, 5.422e-3
-0.186, 5.419e-3
-0.187, 5.416e-3
-0.188, 5.416e-3
-0.189, 5.413e-3
-0.190, 5.413e-3
-0.191, 5.407e-3
-0.192, 5.404e-3
-0.193, 5.401e-3
-0.194, 5.401e-3
-0.195, 5.401e-3
-0.196, 5.398e-3
-0.197, 5.398e-3
-0.198, 5.394e-3
-0.199, 5.394e-3
-0.200, 5.391e-3
-0.201, 5.391e-3
-0.202, 5.391e-3
-0.203, 5.388e-3
-0.204, 5.388e-3
-0.205, 5.385e-3
-0.206, 5.385e-3
-0.207, 5.385e-3
-0.208, 5.382e-3
-0.209, 5.382e-3
-0.210, 5.379e-3
-0.211, 5.379e-3
-0.212, 5.379e-3
-0.213, 5.376e-3
-0.214, 5.376e-3
-0.215, 5.376e-3
-0.216, 5.373e-3
-0.217, 5.373e-3
-0.218, 5.373e-3
-0.219, 5.370e-3
-0.220, 5.370e-3
-0.221, 5.367e-3
-0.222, 5.370e-3
-0.223, 5.367e-3
-0.224, 5.367e-3
-0.225, 5.367e-3
-0.226, 5.364e-3
-0.227, 5.364e-3
-0.228, 5.364e-3
-0.229, 5.361e-3
-0.230, 5.364e-3
-0.231, 5.361e-3
-0.232, 5.361e-3
-0.233, 5.361e-3
-0.234, 5.361e-3
-0.235, 5.361e-3
-0.236, 5.358e-3
-0.237, 5.358e-3
-0.238, 5.358e-3
-0.239, 5.358e-3
-0.240, 5.358e-3
-0.241, 5.358e-3
-0.242, 5.358e-3
-0.243, 5.358e-3
-0.244, 5.358e-3
-0.245, 5.358e-3
-0.246, 5.358e-3
-0.247, 5.355e-3
-0.248, 5.355e-3
-0.249, 5.355e-3
-0.250, 5.355e-3
-0.251, 5.358e-3
-0.252, 5.355e-3
-0.253, 5.355e-3
-0.254, 5.358e-3
-0.255, 5.355e-3
-0.256, 5.358e-3
-0.257, 5.358e-3
-0.258, 5.358e-3
-0.259, 5.358e-3
-0.260, 5.358e-3
-0.261, 5.358e-3
-0.262, 5.358e-3
-0.263, 5.358e-3
-0.264, 5.358e-3
-0.265, 5.358e-3
-0.266, 5.358e-3
-0.267, 5.361e-3
-0.268, 5.361e-3
-0.269, 5.361e-3
-0.270, 5.361e-3
-0.271, 5.361e-3
-0.272, 5.361e-3
-0.273, 5.361e-3
-0.274, 5.361e-3
-0.275, 5.364e-3
-0.276, 5.364e-3
-0.277, 5.364e-3
-0.278, 5.367e-3
-0.279, 5.367e-3
-0.280, 5.367e-3
-0.281, 5.367e-3
-0.282, 5.367e-3
-0.283, 5.370e-3
-0.284, 5.370e-3
-0.285, 5.370e-3
-0.286, 5.364e-3
-0.287, 5.361e-3
-0.288, 5.364e-3
-0.289, 5.364e-3
-0.290, 5.367e-3
-0.291, 5.367e-3
-0.292, 5.370e-3
-0.293, 5.370e-3
-0.294, 5.373e-3
-0.295, 5.373e-3
-0.296, 5.376e-3
-0.297, 5.376e-3
-0.298, 5.379e-3
-0.299, 5.379e-3
-0.300, 5.382e-3
-0.301, 5.382e-3
-0.302, 5.385e-3
-0.303, 5.388e-3
-0.304, 5.388e-3
-0.305, 5.391e-3
-0.306, 5.391e-3
-0.307, 5.394e-3
-0.308, 5.398e-3
-0.309, 5.398e-3
-0.310, 5.401e-3
-0.311, 5.404e-3
-0.312, 5.404e-3
-0.313, 5.407e-3
-0.314, 5.407e-3
-0.315, 5.410e-3
-0.316, 5.413e-3
-0.317, 5.413e-3
-0.318, 5.416e-3
-0.319, 5.419e-3
-0.320, 5.419e-3
-0.321, 5.419e-3
-0.322, 5.422e-3
-0.323, 5.425e-3
-0.324, 5.425e-3
-0.325, 5.428e-3
-0.326, 5.431e-3
-0.327, 5.434e-3
-0.328, 5.434e-3
-0.329, 5.437e-3
-0.330, 5.441e-3
-0.331, 5.444e-3
-0.332, 5.444e-3
-0.333, 5.447e-3
-0.334, 5.450e-3
-0.335, 5.453e-3
-0.336, 5.456e-3
-0.337, 5.459e-3
-0.338, 5.459e-3
-0.339, 5.462e-3
-0.340, 5.465e-3
-0.341, 5.468e-3
-0.342, 5.471e-3
-0.343, 5.474e-3
-0.344, 5.477e-3
-0.345, 5.480e-3
-0.346, 5.483e-3
-0.347, 5.483e-3
-0.348, 5.490e-3
-0.349, 5.490e-3
-0.350, 5.493e-3
-0.351, 5.496e-3
-0.352, 5.499e-3
-0.353, 5.502e-3
-0.354, 5.505e-3
-0.355, 5.508e-3
-0.356, 5.511e-3
-0.357, 5.514e-3
-0.358, 5.517e-3
-0.359, 5.523e-3
-0.360, 5.523e-3
-0.361, 5.526e-3
-0.362, 5.529e-3
-0.363, 5.533e-3
-0.364, 5.536e-3
-0.365, 5.542e-3
-0.366, 5.542e-3
-0.367, 5.548e-3
-0.368, 5.548e-3
-0.369, 5.551e-3
-0.370, 5.554e-3
-0.371, 5.557e-3
-0.372, 5.563e-3
-0.373, 5.566e-3
-0.374, 5.566e-3
-0.375, 5.572e-3
-0.376, 5.576e-3
-0.377, 5.576e-3
-0.378, 5.582e-3
-0.379, 5.585e-3
-0.380, 5.588e-3
-0.381, 5.591e-3
-0.382, 5.594e-3
-0.383, 5.597e-3
-0.384, 5.603e-3
-0.385, 5.606e-3
-0.386, 5.609e-3
-0.387, 5.612e-3
-0.388, 5.618e-3
-0.389, 5.618e-3
-0.390, 5.625e-3
-0.391, 5.628e-3
-0.392, 5.631e-3
-0.393, 5.634e-3
-0.394, 5.637e-3
-0.395, 5.640e-3
-0.396, 5.643e-3
-0.397, 5.646e-3
-0.398, 5.649e-3
-0.399, 5.655e-3
-0.400, 5.658e-3
-0.401, 5.668e-3
-0.402, 5.677e-3
-0.403, 5.680e-3
-0.404, 5.683e-3
-0.405, 5.683e-3
-0.406, 5.686e-3
-0.407, 5.689e-3
-0.408, 5.692e-3
-0.409, 5.701e-3
-0.410, 5.714e-3
-0.411, 5.714e-3
-0.412, 5.717e-3
-0.413, 5.720e-3
-0.414, 5.723e-3
-0.415, 5.726e-3
-0.416, 5.732e-3
-0.417, 5.741e-3
-0.418, 5.744e-3
-0.419, 5.747e-3
-0.420, 5.757e-3
-0.421, 5.760e-3
-0.422, 5.763e-3
-0.423, 5.766e-3
-0.424, 5.769e-3
-0.425, 5.772e-3
-0.426, 5.775e-3
-0.427, 5.778e-3
-0.428, 5.781e-3
-0.429, 5.784e-3
-0.430, 5.790e-3
-0.431, 5.793e-3
-0.432, 5.803e-3
-0.433, 5.812e-3
-0.434, 5.815e-3
-0.435, 5.821e-3
-0.436, 5.824e-3
-0.437, 5.824e-3
-0.438, 5.827e-3
-0.439, 5.830e-3
-0.440, 5.833e-3
-0.441, 5.836e-3
-0.442, 5.842e-3
-0.443, 5.849e-3
-0.444, 5.858e-3
-0.445, 5.864e-3
-0.446, 5.870e-3
-0.447, 5.876e-3
-0.448, 5.882e-3
-0.449, 5.882e-3
-0.450, 5.885e-3
-0.451, 5.885e-3
-0.452, 5.888e-3
-0.453, 5.895e-3
-0.454, 5.898e-3
-0.455, 5.907e-3
-0.456, 5.913e-3
-0.457, 5.916e-3
-0.458, 5.925e-3
-0.459, 5.934e-3
-0.460, 5.944e-3
-0.461, 5.941e-3
-0.462, 5.941e-3
-0.463, 5.941e-3
-0.464, 5.941e-3
-0.465, 5.944e-3
-0.466, 5.959e-3
-0.467, 5.971e-3
-0.468, 5.974e-3
-0.469, 5.977e-3
-0.470, 5.977e-3
-0.471, 5.977e-3
-0.472, 5.990e-3
-0.473, 5.999e-3
-0.474, 6.002e-3
-0.475, 6.008e-3
-0.476, 6.014e-3
-0.477, 6.011e-3
-0.478, 6.014e-3
-0.479, 6.023e-3
-0.480, 6.027e-3
-0.481, 6.027e-3
-0.482, 6.027e-3
-0.483, 6.030e-3
-0.484, 6.042e-3
-0.485, 6.054e-3
-0.486, 6.060e-3
-0.487, 6.063e-3
-0.488, 6.063e-3
-0.489, 6.088e-3
-0.490, 6.091e-3
-0.491, 6.094e-3
-0.492, 6.097e-3
-0.493, 6.112e-3
-0.494, 6.109e-3
-0.495, 6.112e-3
-0.496, 6.112e-3
-0.497, 6.112e-3
-0.498, 6.122e-3
-0.499, 6.134e-3
-0.500, 6.146e-3
-0.501, 6.143e-3
-0.502, 6.140e-3
-0.503, 6.143e-3
-0.504, 6.152e-3
-0.505, 6.168e-3
-0.506, 6.165e-3
-0.507, 6.165e-3
-0.508, 6.177e-3
-0.509, 6.192e-3
-0.510, 6.189e-3
-0.511, 6.189e-3
-0.512, 6.195e-3
-0.513, 6.198e-3
-0.514, 6.208e-3
-0.515, 6.220e-3
-0.516, 6.223e-3
-0.517, 6.217e-3
-0.518, 6.229e-3
-0.519, 6.235e-3
-0.520, 6.251e-3
-0.521, 6.251e-3
-0.522, 6.263e-3
-0.523, 6.287e-3
-0.524, 6.287e-3
-0.525, 6.281e-3
-0.526, 6.284e-3
-0.527, 6.281e-3
-0.528, 6.278e-3
-0.529, 6.281e-3
-0.530, 6.287e-3
-0.531, 6.297e-3
-0.532, 6.300e-3
-0.533, 6.309e-3
-0.534, 6.312e-3
-0.535, 6.315e-3
-0.536, 6.324e-3
-0.537, 6.327e-3
-0.538, 6.318e-3
-0.539, 6.315e-3
-0.540, 6.343e-3
-0.541, 6.352e-3
-0.542, 6.361e-3
-0.543, 6.367e-3
-0.544, 6.361e-3
-0.545, 6.386e-3
-0.546, 6.398e-3
-0.547, 6.395e-3
-0.548, 6.398e-3
-0.549, 6.404e-3
-0.550, 6.407e-3
-0.551, 6.416e-3
-0.552, 6.422e-3
-0.553, 6.416e-3
-0.554, 6.416e-3
-0.555, 6.416e-3
-0.556, 6.416e-3
-0.557, 6.428e-3
-0.558, 6.425e-3
-0.559, 6.425e-3
-0.560, 6.438e-3
-0.561, 6.441e-3
-0.562, 6.438e-3
-0.563, 6.447e-3
-0.564, 6.459e-3
-0.565, 6.462e-3
-0.566, 6.496e-3
-0.567, 6.493e-3
-0.568, 6.490e-3
-0.569, 6.496e-3
-0.570, 6.493e-3
-0.571, 6.490e-3
-0.572, 6.496e-3
-0.573, 6.496e-3
-0.574, 6.499e-3
-0.575, 6.499e-3
-0.576, 6.487e-3
-0.577, 6.484e-3
-0.578, 6.496e-3
-0.579, 6.521e-3
-0.580, 6.517e-3
-0.581, 6.502e-3
-0.582, 6.496e-3
-0.583, 6.493e-3
-0.584, 6.527e-3
-0.585, 6.542e-3
-0.586, 6.557e-3
-0.587, 6.548e-3
-0.588, 6.536e-3
-0.589, 6.542e-3
-0.590, 6.542e-3
-0.591, 6.551e-3
-0.592, 6.557e-3
-0.593, 6.588e-3
-0.594, 6.582e-3
-0.595, 6.579e-3
-0.596, 6.576e-3
-0.597, 6.594e-3
-0.598, 6.631e-3
-0.599, 6.625e-3
-0.600, 6.609e-3
-0.601, 6.606e-3
-0.602, 6.600e-3
-0.603, 6.616e-3
-0.604, 6.616e-3
-0.605, 6.616e-3
-0.606, 6.613e-3
-0.607, 6.634e-3
-0.608, 6.665e-3
-0.609, 6.665e-3
-0.610, 6.662e-3
-0.611, 6.659e-3
-0.612, 6.668e-3
-0.613, 6.662e-3
-0.614, 6.665e-3
-0.615, 6.705e-3
-0.616, 6.757e-3
-0.617, 6.754e-3
-0.618, 6.751e-3
-0.619, 6.741e-3
-0.620, 6.757e-3
-0.621, 6.754e-3
-0.622, 6.769e-3
-0.623, 6.809e-3
-0.624, 6.809e-3
-0.625, 6.803e-3
-0.626, 6.803e-3
-0.627, 6.870e-3
-0.628, 6.858e-3
-0.629, 6.855e-3
-0.630, 6.864e-3
-0.631, 6.849e-3
-0.632, 6.858e-3
-0.633, 6.864e-3
-0.634, 6.873e-3
-0.635, 6.873e-3
-0.636, 6.901e-3
-0.637, 6.904e-3
-0.638, 6.904e-3
-0.639, 6.910e-3
-0.640, 6.916e-3
-0.641, 6.926e-3
-0.642, 6.950e-3
-0.643, 6.965e-3
-0.644, 6.959e-3
-0.645, 6.981e-3
-0.646, 6.981e-3
-0.647, 6.987e-3
-0.648, 7.002e-3
-0.649, 7.018e-3
-0.650, 7.021e-3
-0.651, 7.036e-3
-0.652, 7.051e-3
-0.653, 7.051e-3
-0.654, 7.048e-3
-0.655, 7.067e-3
-0.656, 7.070e-3
-0.657, 7.088e-3
-0.658, 7.082e-3
-0.659, 7.079e-3
-0.660, 7.085e-3
-0.661, 7.107e-3
-0.662, 7.140e-3
-0.663, 7.140e-3
-0.664, 7.159e-3
-0.665, 7.180e-3
-0.666, 7.199e-3
-0.667, 7.177e-3
-0.668, 7.214e-3
-0.669, 7.266e-3
-0.670, 7.275e-3
-0.671, 7.263e-3
-0.672, 7.288e-3
-0.673, 7.288e-3
-0.674, 7.321e-3
-0.675, 7.312e-3
-0.676, 7.346e-3
-0.677, 7.331e-3
-0.678, 7.334e-3
-0.679, 7.358e-3
-0.680, 7.386e-3
-0.681, 7.401e-3
-0.682, 7.401e-3
-0.683, 7.469e-3
-0.684, 7.472e-3
-0.685, 7.515e-3
-0.686, 7.499e-3
-0.687, 7.475e-3
-0.688, 7.505e-3
-0.689, 7.512e-3
-0.690, 7.582e-3
-0.691, 7.564e-3
-0.692, 7.570e-3
-0.693, 7.585e-3
-0.694, 7.594e-3
-0.695, 7.643e-3
-0.696, 7.607e-3
-0.697, 7.622e-3
-0.698, 7.637e-3
-0.699, 7.650e-3
-0.700, 7.683e-3
-0.701, 7.748e-3
-0.702, 7.714e-3
-0.703, 7.729e-3
-0.704, 7.717e-3
-0.705, 7.736e-3
-0.706, 7.736e-3
-0.707, 7.800e-3
-0.708, 7.828e-3
-0.709, 7.837e-3
-0.710, 7.874e-3
-0.711, 7.929e-3
-0.712, 7.898e-3
-0.713, 7.923e-3
-0.714, 7.917e-3
-0.715, 7.926e-3
-0.716, 7.953e-3
-0.717, 7.956e-3
-0.718, 8.119e-3
-0.719, 8.190e-3
-0.720, 8.190e-3
-0.721, 8.196e-3
-0.722, 8.263e-3
-0.723, 8.291e-3
-0.724, 8.346e-3
-0.725, 8.322e-3
-0.726, 8.361e-3
-0.727, 8.429e-3
-0.728, 8.404e-3
-0.729, 8.435e-3
-0.730, 8.469e-3
-0.731, 8.484e-3
-0.732, 8.463e-3
-0.733, 8.503e-3
-0.734, 8.631e-3
-0.735, 8.631e-3
-0.736, 8.650e-3
-0.737, 8.641e-3
-0.738, 8.727e-3
-0.739, 8.690e-3
-0.740, 8.690e-3
-0.741, 8.727e-3
-0.742, 8.776e-3
-0.743, 8.757e-3
-0.744, 8.828e-3
-0.745, 8.846e-3
-0.746, 8.825e-3
-0.747, 8.932e-3
-0.748, 9.193e-3
-0.749, 1.021e-2
-0.750, 1.012e-2
-0.751, 1.009e-2
-0.752, 1.003e-2
-0.753, 9.975e-3
-0.754, 1.004e-2
-0.755, 1.001e-2
-0.756, 9.994e-3
-0.757, 9.966e-3
-0.758, 1.002e-2
-0.759, 1.003e-2
-0.760, 1.009e-2
-0.761, 1.018e-2
-0.762, 1.034e-2
-0.763, 1.037e-2
-0.764, 1.034e-2
-0.765, 1.032e-2
-0.766, 1.032e-2
-0.767, 1.041e-2
-0.768, 1.046e-2
-0.769, 1.042e-2
-0.770, 1.037e-2
-0.771, 1.044e-2
-0.772, 1.039e-2
-0.773, 1.041e-2
-0.774, 1.045e-2
-0.775, 1.050e-2
-0.776, 1.050e-2
-0.777, 1.053e-2
-0.778, 1.055e-2
-0.779, 1.064e-2
-0.780, 1.065e-2
-0.781, 1.070e-2
-0.782, 1.079e-2
-0.783, 1.078e-2
-0.784, 1.096e-2
-0.785, 1.111e-2
-0.786, 1.106e-2
-0.787, 1.111e-2
-0.788, 1.106e-2
-0.789, 1.106e-2
-0.790, 1.104e-2
-0.791, 1.103e-2
-0.792, 1.108e-2
-0.793, 1.123e-2
-0.794, 1.117e-2
-0.795, 1.118e-2
-0.796, 1.129e-2
-0.797, 1.156e-2
-0.798, 1.158e-2
-0.799, 1.165e-2
